0.9569733714736339	2.3563795307046735	1.316580721376446	-0.47694719921751866	1.5719898540338142	1.0043928400560436	-1.2475575690717935	0.9120891950560855	-1.7561773147226536	0.02910423403750383	-0.8525152517000342
-0.9325455691367256	-0.6746522923582788	0.05717055077122835	0.8075805775500478	-0.841844550743449	0.883087813943633	-0.04557168989384784	-1.0286595498504258	-0.66403359388316	-0.44943372460931574	0.6598991497206735
-0.49650273668818107	-0.4248419772706729	-0.5152886176856888	-0.03750348611282491	-0.7910269843270855	1.1742198766134182	-0.4288135644143522	-0.49936443760319543	0.7401511900533319	0.02910423403750383	0.12215180699331082
-0.9034760469734893	-0.6579982713524385	0.2861542181539952	1.2132209281082267	-0.18121618733072434	-0.13587440540061538	-0.7249550129074692	-0.8522278457680157	-0.0399514676891636	0.26837321336091363	1.1976464924480363
2.2651018688192677	1.157290018284165	1.316580721376446	-2.2347220516362936	-0.5369391522452683	0.6889997721637762	-1.4740186767430006	2.1471111236329565	1.3642333162473284	2.4217940272716016	-1.9280099371547597
-0.7871979583205441	-0.5913821873290769	-1.2022396198339893	0.33433350189883904	-1.0451148164089028	-0.038830384510686974	-0.3591332235924423	-0.8522278457680157	0.896171721601831	-0.5690682142710206	0.5254623140388329
0.40465245037214426	-0.10841557815970533	-0.9732559524512224	-0.4093404741244889	0.6318648753310906	0.7132607773862583	0.6686518035307285	0.5592257868912653	-0.66403359388316	-1.5261441315646598	-0.5500323714158926
-0.6127808253411262	-0.49145806129403447	-0.057321282920155064	-0.13891357375236962	-1.2737938652825382	-0.3784844576254364	-0.11525203071575772	-0.49936443760319543	0.2720895954078346	0.14873872369920874	-0.0795034465294502
-0.7290589139940714	-0.5580741453173961	-0.40079678399430535	0.0977099640732347	-1.2229762988661748	0.9316098243885972	0.4073505254485664	-0.6757961416856055	-0.1959719992376627	-0.5690682142710206	0.05493338915239049
-0.7581284361573077	-0.5747281663232364	-0.6297804513770722	0.6047604022709583	-0.5623479354534501	0.9801318348335614	0.05894882133901699	-0.6757961416856055	-1.1320951885286572	-1.5261441315646598	0.35741626943653204
-0.8453370026470166	-0.6246902293407577	-0.6297804513770722	0.8751873026430775	-0.4353040194125415	0.8345658034986687	0.5118710366814313	-0.8522278457680157	0.5841306585048328	-0.21016474528590595	0.9959912389252753
1.0441819379633428	0.4578211360388682	-1.2022396198339893	-1.3220312628803912	-0.05417227128981574	-0.01456937928820487	-0.28945288277053244	1.0885208991384958	0.896171721601831	-0.5690682142710206	-1.1213889230637155
-0.7581284361573077	-0.5747281663232364	0.6296297192281455	0.8075805775500478	-0.2574425369552695	-0.9122265725200427	0.26798984380474666	-0.6757961416856055	-1.2881157200771565	-0.3297992349476109	0.5254623140388329
-0.7290589139940714	-0.5580741453173961	0.8586133866109122	0.26672677680580925	-0.9688884667843576	0.20377966771413406	-0.08041186030480278	-0.6757961416856055	-0.1959719992376627	0.7469111720077332	0.22297943375469134
-0.7290589139940714	-0.5580741453173961	-0.5152886176856888	0.5371536771779285	-0.5877567186616318	-0.6696165202952217	-0.28945288277053244	-0.8522278457680157	-0.1959719992376627	-0.6887027039327256	0.4918531051183727
-0.35115512587199954	-0.4581500192823537	-0.057321282920155064	0.5371536771779285	0.5302297424983637	-0.9850095881874891	-1.0385165466060637	-0.3229327335207853	1.3642333162473284	0.986180151331143	0.8279451943229744
-0.8162674804837804	-0.6080362083349172	-0.17181311661153847	0.5709570397244433	-0.7910269843270855	0.3008236886040625	0.006688565722584575	-0.6757961416856055	-1.1320951885286572	-1.0476061729178403	0.32380706051607183
-0.7581284361573077	-0.5747281663232364	2.347007224598897	0.9427940277361073	-0.07958105449799746	-0.038830384510686974	-0.09783194551028025	-0.6757961416856055	0.7401511900533319	3.019966475580126	1.0968188656866558
-0.7290589139940714	-0.5580741453173961	0.515137885536762	0.6385637648174732	-0.4353040194125415	-1.2518806456347922	0.2331496733937917	-0.6757961416856055	0.7401511900533319	1.105814640992848	0.7943359854025143
-0.7871979583205441	-0.5913821873290769	-0.5152886176856888	0.8075805775500478	-0.3590776697879963	-0.76666054118515	-0.28945288277053244	-0.8522278457680157	-0.1959719992376627	-0.6887027039327256	0.7607267764820541
-0.23487703721905437	-0.2749557882181093	-0.2863049503029219	0.6047604022709583	0.962179057037453	1.0771758557234898	0.4770308662704763	-0.3229327335207853	-0.1959719992376627	-0.44943372460931574	0.5590715229592931
-0.8744065248102529	-0.641344250346598	-1.5457151209081395	0.6047604022709583	-0.9180709003679941	0.883087813943633	0.32025009942117905	-0.8522278457680157	0.4281101269563337	-1.28687515224125	0.6935083586411337
-0.14766847072934547	0.9574417662140802	0.05717055077122835	0.33433350189883904	0.7335000081638176	-1.3246636613022384	-1.6656396140032528	-0.14650102943837517	-0.1959719992376627	-0.09053025562420107	0.2901978515956117
0.8406952828206887	0.3412429889979854	-0.9732559524512224	-0.7811774621361528	0.7335000081638176	-1.0820536090774173	3.5255457772290337	0.9120891950560855	-0.0399514676891636	-1.0476061729178403	-0.7852968338591138
-0.7581284361573077	-0.5747281663232364	5.552778567957633	1.6864680037594353	1.038405406661998	1.586656965395614	-2.118561829345667	-0.6757961416856055	-1.9121978462711526	4.33594586185888	1.2648649102889566
-0.7581284361573077	-0.5747281663232364	0.9731052203022957	0.7737772150035328	-0.3082601033716329	-0.2571794315130259	-0.2023524567431451	-0.6757961416856055	-2.2242389093681507	-0.6887027039327256	0.2901978515956117
-0.7290589139940714	-0.5580741453173961	-1.431223287216756	0.5033503146314136	-0.6385742850779953	-0.47552847851536484	0.1112090769554494	-0.8522278457680157	1.05219225315033	-0.6887027039327256	0.727117567561594
-0.6999893918308352	-0.5414201243115557	0.4006460518453786	0.36813686444535393	-0.7148006347025404	1.1742198766134182	0.14604924736640434	-0.6757961416856055	-0.1959719992376627	0.26837321336091363	0.32380706051607183
-0.031390382076400256	-0.3415718722414709	0.17166238446261178	0.33433350189883904	1.0129966234538164	-0.2329184262905438	-0.6552746720855593	0.02993067464403496	-1.6001567831741546	-1.0476061729178403	-0.012285028688529856
-0.031390382076400256	-0.4581500192823537	0.05717055077122835	0.6723671273639881	1.6228074204501777	0.6889997721637762	-1.5785391879758655	0.02993067464403496	-0.0399514676891636	0.02910423403750383	0.6598991497206735
-0.7290589139940714	-0.5580741453173961	-0.17181311661153847	0.43574358953838377	-0.7402094179107221	-0.5725724994052932	-0.7772152685239017	-0.6757961416856055	-0.5080130623346609	-0.5690682142710206	0.32380706051607183
0.666278149841271	0.24131886296294303	-0.858764118759839	-1.1868178126943316	-0.38448645299617806	0.8103047982761866	0.14604924736640434	0.7356574909736755	1.3642333162473284	0.14873872369920874	-0.8861244606204943
-0.8744065248102529	-0.641344250346598	-0.40079678399430535	0.4019402269918689	-1.2229762988661748	-0.9850095881874891	-0.3765533087979198	-0.8522278457680157	-0.0399514676891636	-0.44943372460931574	0.3910254783569922
1.1023209822898155	5.021022891639137	-1.087747786142606	-1.7276716134385701	-0.841844550743449	1.125697866168454	3.3861850955852137	1.0885208991384958	1.5202538477958274	0.02910423403750383	-1.390262594427397
-0.29301608154552694	-0.3082638302297901	0.2861542181539952	-0.44314383667100377	-0.9434796835761758	0.4463897199389551	-0.11525203071575772	-0.3229327335207853	-0.5080130623346609	-0.09053025562420107	-0.5500323714158926
0.17209627306625386	-0.25830176721226894	-0.6297804513770722	-0.47694719921751866	0.022054078334729412	0.05821363637924144	-0.6552746720855593	0.20636237872644508	1.5202538477958274	0.5076421926843234	-0.14672186437037055
-0.7581284361573077	-0.5747281663232364	-1.2022396198339893	0.0639066015267198	-1.375428998115265	0.7617827878312224	0.355090269832134	-0.6757961416856055	0.4281101269563337	-0.9279716832561353	0.155761015913771
0.8988343271471614	0.07477865290453904	-0.40079678399430535	-1.0178009999617572	0.35236826004109173	-0.13587440540061538	-0.09783194551028025	0.9120891950560855	1.208212784698829	0.5076421926843234	-0.7516876249386536
-0.7871979583205441	-0.5913821873290769	-1.2022396198339893	1.3484343782942863	0.4285946096656369	0.7132607773862583	0.3899304402430889	-0.8522278457680157	-0.1959719992376627	-1.4065096419029548	1.298474119209417
0.28837436171919906	2.9059622238974065	-1.2022396198339893	-0.7811774621361528	-0.3082601033716329	-0.01456937928820487	-0.1326721159212352	0.20636237872644508	0.7401511900533319	-0.6887027039327256	-0.617250789256813
0.6081391055147983	0.20801082095126222	-0.7442722850684556	-1.2206211752408467	-0.5623479354534501	-1.0335315986324531	-0.4984939052362621	0.7356574909736755	1.3642333162473284	0.26837321336091363	-0.9197336695409545
-0.20580751505581807	-0.25830176721226894	-0.6297804513770722	0.26672677680580925	0.45400339287381863	-1.0820536090774173	-0.09783194551028025	-0.3229327335207853	1.3642333162473284	0.3880077030226185	0.5590715229592931
-0.08952942640287286	-0.025145473130503342	0.05717055077122835	-0.17271693629888452	-0.003354704873452306	0.08247464160172355	-0.18493237153766762	-0.3229327335207853	0.2720895954078346	0.26837321336091363	-0.11311265544991037
-0.7871979583205441	-0.5913821873290769	-0.057321282920155064	0.7737772150035328	-0.4098952362043598	-0.01456937928820487	-0.30687296797600994	-0.8522278457680157	-0.5080130623346609	-0.44943372460931574	0.6598991497206735
0.8406952828206887	0.3412429889979854	-0.2863049503029219	-0.6797673744966081	0.9367702738292712	0.5434337408288835	0.8776928259964581	0.7356574909736755	-0.9760746569801582	-1.0476061729178403	-0.8861244606204943
1.8581285585339593	5.021022891639137	-0.6297804513770722	-1.3558346254269062	1.0892229730783616	0.22804067293661617	3.316504754763304	1.9706794195505464	0.2720895954078346	-0.44943372460931574	-1.2894349676660164
-0.26394655938229067	-0.2916098092239497	-0.7442722850684556	-0.0037001235663100037	-0.1558074041225426	0.5919557512738477	-0.08041186030480278	-0.3229327335207853	-0.1959719992376627	-0.9279716832561353	-0.04589423760899003
-0.8162674804837804	-0.5414201243115557	0.2861542181539952	1.3484343782942863	0.32695947683291005	-0.6696165202952217	-0.3242930531814874	-0.8522278457680157	0.1160690638593355	0.3880077030226185	1.3656925370503372
-0.7871979583205441	-0.5913821873290769	-0.7442722850684556	0.26672677680580925	-1.1467499492416295	-1.9311887918642912	-0.1326721159212352	-0.8522278457680157	1.208212784698829	0.14873872369920874	0.5254623140388329
-0.46743321452494474	5.387411353767626	-0.2863049503029219	0.30053013935232414	-0.18121618733072434	0.4949117303839193	-0.9688362057841539	-0.49936443760319543	1.05219225315033	0.5076421926843234	0.5254623140388329
-0.38022464803523587	-0.3582258932473113	-0.40079678399430535	0.36813686444535393	0.17450677758381972	-0.3057014419579901	-0.18493237153766762	-0.3229327335207853	1.05219225315033	0.3880077030226185	0.5926807318797532
-0.17673799289258177	0.008162568881177454	1.316580721376446	0.46954695208489866	0.8859527074129078	1.6594399810630602	-0.864315694551289	-0.14650102943837517	1.3642333162473284	2.4217940272716016	0.7607267764820541
-0.7581284361573077	-0.5747281663232364	-0.2863049503029219	1.078007477922167	0.12368921116745628	-0.5968335046277754	-0.15009220112671268	-0.6757961416856055	1.208212784698829	0.6272766823460283	1.332083328129877
-0.8453370026470166	-0.6246902293407577	-0.7442722850684556	0.36813686444535393	-1.1721587324498113	-0.038830384510686974	-0.15009220112671268	-0.8522278457680157	0.896171721601831	-0.09053025562420107	0.5590715229592931
-0.7290589139940714	-0.5580741453173961	0.6296297192281455	0.7399738524570179	-0.2828513201634512	1.0529148505010077	0.26798984380474666	-0.6757961416856055	-0.5080130623346609	0.26837321336091363	0.6262899408002134
-0.8744065248102529	-0.641344250346598	-0.6297804513770722	0.9427940277361073	-0.4353040194125415	0.8345658034986687	0.33767018462665654	-0.8522278457680157	-0.1959719992376627	-0.8083371935944305	0.8951636121638947
1.6837114255545416	0.824209598167357	-0.17181311661153847	-1.457244713066451	0.606456092122909	0.6162167564963298	-0.30687296797600994	1.7942477154681362	0.5841306585048328	0.26837321336091363	-1.3230441765864764
-0.14766847072934547	-0.2249937252005881	-1.2022396198339893	0.30053013935232414	0.6572736585392723	-0.1843964158455796	-0.2546127123595775	-0.14650102943837517	0.5841306585048328	-0.8083371935944305	0.42463468727745235
0.5209305390250895	0.15804875793374104	0.17166238446261178	-0.9501942748687273	-0.18121618733072434	-0.9850095881874891	0.14604924736640434	0.5592257868912653	-1.1320951885286572	-0.6887027039327256	-1.1886073409046358
0.7244171941677435	0.058124631898698646	-0.858764118759839	-1.051604362508272	-0.028763488081634023	0.37360670427150877	-1.82242038085255	0.7356574909736755	0.4281101269563337	-0.5690682142710206	-0.9533428784614146
-0.6709198696675989	-0.5247661033057153	-1.087747786142606	0.0639066015267198	-1.1213411660334478	1.0771758557234898	0.5118710366814313	-0.6757961416856055	-0.1959719992376627	-1.28687515224125	0.021324180231930313
-0.7581284361573077	-0.5747281663232364	-0.057321282920155064	0.8751873026430775	-0.1558074041225426	0.3008236886040625	-0.1326721159212352	-0.6757961416856055	-0.0399514676891636	-0.09053025562420107	0.8615544032434346
-0.5255722588514173	-0.4414959982765133	-0.5152886176856888	0.0301032389802049	-0.7656182011189038	1.0529148505010077	0.5815513775033412	-0.49936443760319543	-0.5080130623346609	-0.9279716832561353	-0.0795034465294502
-0.17673799289258177	0.24131886296294303	0.05717055077122835	0.36813686444535393	0.7080912249556358	0.10673564682420565	-0.46365373482530714	-0.3229327335207853	0.896171721601831	0.7469111720077332	0.5590715229592931
-0.7871979583205441	-0.5913821873290769	0.4006460518453786	1.078007477922167	0.04746286154291113	0.3978677094939909	0.4073505254485664	-0.8522278457680157	0.7401511900533319	0.986180151331143	1.2312557013684964
-0.8162674804837804	-0.6080362083349172	0.8586133866109122	1.044204115375652	-0.10498983770617917	0.5919557512738477	0.32025009942117905	-0.8522278457680157	-0.9760746569801582	0.14873872369920874	0.8279451943229744
0.11395722873978124	-0.025145473130503342	0.9731052203022957	-0.34173374903145903	0.149097994375638	-0.06309138973316908	-0.010731519482892896	0.20636237872644508	-0.66403359388316	0.5076421926843234	-0.48281395357497225
-0.5546417810146537	-0.4581500192823537	-0.2863049503029219	0.5371536771779285	-0.05417227128981574	0.6404777617188119	0.05894882133901699	-0.49936443760319543	0.1160690638593355	-0.21016474528590595	0.5590715229592931
0.6953476720045072	0.12474071592206024	0.4006460518453786	-0.747374099589638	0.5302297424983637	2.023355059400292	-0.1326721159212352	0.7356574909736755	-1.2881157200771565	-0.5690682142710206	-1.020561296302335
-0.6999893918308352	-0.5414201243115557	1.0875970539936792	0.23292341425929433	-0.9180709003679941	-0.6696165202952217	-0.6552746720855593	-0.6757961416856055	0.2720895954078346	1.3450836203162577	0.2901978515956117
0.37558292820890793	0.6410153671031126	-1.3167314535253727	-0.8487841872291826	-0.2574425369552695	0.13099665204668776	-1.9792011477018474	0.38279408280885524	0.5841306585048328	-0.9279716832561353	-0.7180784160181934
-0.5546417810146537	-0.4581500192823537	-1.087747786142606	0.43574358953838377	-0.20662497053890605	-1.8341447709743626	-0.4984939052362621	-0.6757961416856055	-0.5080130623346609	-1.5261441315646598	0.32380706051607183
-0.7871979583205441	-0.5913821873290769	0.515137885536762	2.125911716864129	1.5719898540338142	0.13099665204668776	-0.09783194551028025	-0.6757961416856055	0.5841306585048328	0.986180151331143	2.2395319689823014
0.23023531739272646	0.008162568881177454	1.5455643887592128	-0.24032366139191433	0.5810473089147272	-1.8341447709743626	-1.4914387619484781	0.20636237872644508	-2.2242389093681507	-0.09053025562420107	-0.7180784160181934
-0.7290589139940714	-0.5580741453173961	0.17166238446261178	0.4019402269918689	-0.7910269843270855	-1.0577926038549352	-1.0385165466060637	-0.6757961416856055	1.208212784698829	1.105814640992848	0.6598991497206735
0.37558292820890793	0.07477865290453904	-1.2022396198339893	-0.5107505617640336	0.37777704324927347	-2.634757943316272	1.20867444490053	0.38279408280885524	-0.66403359388316	-1.7654131108880695	-0.6508599981772731
-0.7581284361573077	-0.5747281663232364	-0.6297804513770722	0.5371536771779285	-0.6639830682861769	0.3008236886040625	0.3028300142157016	-0.6757961416856055	1.05219225315033	0.14873872369920874	0.7607267764820541
-0.11859894856610916	4.121705757323755	0.7441215529195289	0.5371536771779285	1.140040539494725	-0.2571794315130259	2.2712996424346557	-0.14650102943837517	-0.8200541254316591	0.14873872369920874	0.35741626943653204
-0.9906846134631981	-0.7079603343699596	0.9731052203022957	1.0104007528291372	-0.7656182011189038	0.7617827878312224	-0.2023524567431451	-1.0286595498504258	-0.8200541254316591	0.3880077030226185	0.8279451943229744
0.31744388388243533	5.021022891639137	0.2861542181539952	-0.8149808246826677	-0.3082601033716329	-1.0820536090774173	2.0274184495579712	0.20636237872644508	-0.66403359388316	-0.21016474528590595	-0.9533428784614146
2.6720751791045756	1.5736405434301748	-0.6297804513770722	-1.6600648883455404	1.3941283715765422	0.6404777617188119	0.6338116331197735	2.676406235880187	-0.66403359388316	-1.167240662579545	-1.7935731014729188
-0.7871979583205441	-0.5913821873290769	-0.17181311661153847	0.5371536771779285	-0.7656182011189038	0.7375217826087404	0.05894882133901699	-0.8522278457680157	-0.0399514676891636	-0.21016474528590595	0.5254623140388329
-1.0197541356264344	-0.7246143553758001	-0.17181311661153847	0.706170489910503	-1.2737938652825382	0.17951866249165196	0.2854099290102241	-1.0286595498504258	-0.0399514676891636	-0.21016474528590595	0.6935083586411337
-0.9325455691367256	-0.6746522923582788	0.05717055077122835	0.706170489910503	-0.9688884667843576	0.5676947460513656	0.07636890654449446	-0.8522278457680157	-0.5080130623346609	-0.3297992349476109	0.5926807318797532
-0.031390382076400256	0.15804875793374104	0.2861542181539952	-0.375537111577974	-0.23203375374708776	-0.42700646807040066	-0.533334075647217	-0.14650102943837517	-0.3519925307861618	0.02910423403750383	-0.4492047446545121
-0.7290589139940714	-0.5580741453173961	0.05717055077122835	0.19912005171277944	-1.0705235996170845	1.0529148505010077	0.006688565722584575	-0.6757961416856055	0.1160690638593355	0.14873872369920874	0.22297943375469134
-0.7871979583205441	-0.5913821873290769	0.6296297192281455	0.36813686444535393	-0.9942972499925393	0.883087813943633	0.25056975859926917	-0.8522278457680157	-0.1959719992376627	0.5076421926843234	0.32380706051607183
-0.8453370026470166	-0.6246902293407577	-0.2863049503029219	0.16531668916626452	-1.477064130947992	-0.6210945098502575	1.1215740188731427	-0.8522278457680157	-0.1959719992376627	-0.44943372460931574	0.12215180699331082
-0.8453370026470166	-0.6246902293407577	-0.17181311661153847	0.5371536771779285	-0.9434796835761758	-1.5187517030820954	-0.28945288277053244	-0.8522278457680157	1.05219225315033	0.6272766823460283	0.7607267764820541
-0.8162674804837804	-0.6080362083349172	-0.2863049503029219	1.1456142030151968	0.04746286154291113	0.17951866249165196	0.4073505254485664	-0.6757961416856055	0.1160690638593355	-0.21016474528590595	1.164037283527576
-1.1069627021161434	-0.7745764183933213	0.6296297192281455	2.159715079410644	0.35236826004109173	0.37360670427150877	0.05894882133901699	-1.0286595498504258	-0.3519925307861618	0.3880077030226185	2.0714859243800006
-0.060459904239636555	0.14139473692790064	1.2020888876850626	0.19912005171277944	0.7080912249556358	-0.01456937928820487	-0.4462336496198297	0.02993067464403496	1.05219225315033	2.062890558286487	0.42463468727745235
-0.8162674804837804	-0.6080362083349172	-0.17181311661153847	1.5174511910268607	0.5810473089147272	-0.06309138973316908	-1.8921007216744599	-0.8522278457680157	-0.66403359388316	-0.6887027039327256	1.3656925370503372
0.5209305390250895	0.15804875793374104	-0.2863049503029219	-1.119211087601302	-0.5115303690370867	-0.35422345240295433	0.16346933257188181	0.5592257868912653	0.1160690638593355	-0.21016474528590595	-1.0877797141432552
-0.7581284361573077	-0.5747281663232364	-0.6297804513770722	-0.07130684865933981	-1.5532904805725372	-0.2086574210680617	-0.4462336496198297	-0.8522278457680157	-0.1959719992376627	-0.8083371935944305	-0.11311265544991037
0.6372086276780347	0.22466484195710262	0.515137885536762	-0.5445539243105485	0.8351351409965444	-2.561974927648826	0.9647932520238455	0.5592257868912653	-0.0399514676891636	0.5076421926843234	-0.5500323714158926
-0.26394655938229067	-0.2916098092239497	0.17166238446261178	-0.17271693629888452	-0.4353040194125415	0.25230167815909826	-0.04557168989384784	-0.14650102943837517	1.208212784698829	1.105814640992848	0.08854259807285066
-0.40929417019847214	-0.3748799142531517	-0.17181311661153847	0.0639066015267198	-0.38448645299617806	-0.038830384510686974	-0.568174246058172	-0.49936443760319543	-0.0399514676891636	-0.21016474528590595	0.05493338915239049
-0.7871979583205441	-0.5913821873290769	0.17166238446261178	0.4019402269918689	-0.9434796835761758	0.422128714716473	-0.6378545868800819	-0.6757961416856055	1.3642333162473284	1.2254491306545527	0.6935083586411337
-0.8453370026470166	-0.6246902293407577	0.8586133866109122	0.46954695208489866	-1.019706033200721	-1.2761416508572743	-2.1359819145511447	-0.8522278457680157	-1.4441362516256555	-0.21016474528590595	0.155761015913771
-0.7290589139940714	-0.5580741453173961	-0.2863049503029219	-0.07130684865933981	-1.477064130947992	-0.49978948373784693	-0.568174246058172	-0.6757961416856055	0.896171721601831	0.3880077030226185	0.12215180699331082
1.3930162039221785	0.6576693881089529	-0.858764118759839	-1.423441350519936	0.2507331272083649	0.6404777617188119	0.1112090769554494	1.2649526032209057	0.4281101269563337	-0.5690682142710206	-1.3230441765864764
-0.8162674804837804	-0.6080362083349172	-0.2863049503029219	1.111810840468682	-0.003354704873452306	0.6647387669412941	0.42477061065404387	-0.8522278457680157	-0.0399514676891636	-0.3297992349476109	1.0968188656866558
-1.0197541356264344	-0.7246143553758001	-0.6297804513770722	1.6526646412129202	0.022054078334729412	-0.742399535962668	-0.8294755241403341	-1.0286595498504258	0.5841306585048328	-0.21016474528590595	1.7690030440958593
0.08488770657654494	2.3563795307046735	-0.057321282920155064	-0.8149808246826677	-0.7656182011189038	0.5191727356064014	-0.16751228633219015	0.02993067464403496	-0.0399514676891636	-0.09053025562420107	-0.8189060427795739
-0.8744065248102529	-0.641344250346598	0.2861542181539952	0.706170489910503	-0.7910269843270855	0.27656268338158035	0.19830950298283676	-0.8522278457680157	0.896171721601831	0.986180151331143	0.8951636121638947
0.5500000611883258	0.17470277893958144	-0.5152886176856888	-0.6797673744966081	0.40318582645745515	-0.11161340017813329	-0.41139347920887476	0.5592257868912653	1.05219225315033	0.26837321336091363	-0.4492047446545121
-0.7581284361573077	-0.5747281663232364	-1.087747786142606	1.1794175655617116	0.27614191041654657	-0.4027454628479185	-0.2546127123595775	-0.6757961416856055	-0.0399514676891636	-1.167240662579545	1.164037283527576
-0.58371130317789	-0.3748799142531517	-0.057321282920155064	0.36813686444535393	-0.4098952362043598	-1.664317734416988	1.8880577679141515	-0.49936443760319543	0.1160690638593355	0.02910423403750383	0.3910254783569922
0.6953476720045072	0.25797288396878343	-0.6297804513770722	-1.1868178126943316	-0.3590776697879963	1.1742198766134182	-0.41139347920887476	0.7356574909736755	-0.1959719992376627	-0.8083371935944305	-1.222216549825096
-0.8162674804837804	-0.6080362083349172	0.17166238446261178	1.1794175655617116	0.09828042795927457	0.9316098243885972	-0.9165759501677214	-0.8522278457680157	0.5841306585048328	0.6272766823460283	1.298474119209417
-0.29301608154552694	0.058124631898698646	0.4006460518453786	0.9765973902826223	1.419537154784724	-0.8637045620750785	3.577806032845466	-0.3229327335207853	0.896171721601831	1.105814640992848	1.164037283527576
-0.9906846134631981	-0.7079603343699596	0.4006460518453786	1.044204115375652	-0.7148006347025404	0.3493456990490267	-0.46365373482530714	-1.0286595498504258	-0.1959719992376627	0.26837321336091363	0.9959912389252753
-0.7290589139940714	-0.5580741453173961	0.4006460518453786	0.23292341425929433	-1.019706033200721	0.22804067293661617	-0.4288135644143522	-0.6757961416856055	1.208212784698829	1.3450836203162577	0.4918531051183727
-0.8162674804837804	-0.6080362083349172	-0.17181311661153847	0.6047604022709583	-0.7402094179107221	1.125697866168454	0.4596107810649988	-0.8522278457680157	-0.0399514676891636	-0.21016474528590595	0.5926807318797532
-0.8162674804837804	-0.6080362083349172	0.515137885536762	1.044204115375652	-0.10498983770617917	-0.32996244718047224	-0.5159139904417396	-0.8522278457680157	-0.5080130623346609	0.14873872369920874	0.9287728210843549
-0.9325455691367256	-0.6746522923582788	-0.2863049503029219	0.9089906651895925	-0.6893918514943587	-2.0039718075317374	-1.1430370578389286	-0.8522278457680157	-0.9760746569801582	-1.0476061729178403	0.6935083586411337
-0.7290589139940714	-0.5580741453173961	-0.40079678399430535	0.6723671273639881	-0.38448645299617806	0.37360670427150877	-0.010731519482892896	-0.8522278457680157	0.2720895954078346	-0.21016474528590595	0.727117567561594
-0.49650273668818107	-0.04179949413634374	-1.087747786142606	0.33433350189883904	-0.20662497053890605	-1.3489246665247205	2.7068017725715925	-0.49936443760319543	1.5202538477958274	0.02910423403750383	0.6598991497206735
-0.7290589139940714	-0.6080362083349172	-1.087747786142606	0.7737772150035328	-0.23203375374708776	0.6889997721637762	0.33767018462665654	-0.6757961416856055	0.1160690638593355	-1.0476061729178403	0.7943359854025143
-0.8744065248102529	-0.641344250346598	0.2861542181539952	1.2470242906547415	-0.003354704873452306	0.5191727356064014	0.4770308662704763	-0.8522278457680157	1.208212784698829	1.2254491306545527	1.5001293727321778
1.1023209822898155	0.7242854721323145	1.8890398898333631	-0.47694719921751866	1.8514864693238131	0.8588268087211509	-1.4914387619484781	1.0885208991384958	1.208212784698829	2.900331985918421	-0.21394028221129088
-0.8453370026470166	-0.6246902293407577	-0.057321282920155064	0.43574358953838377	-1.0705235996170845	-1.5430127083045775	-0.7946353537293791	-0.8522278457680157	-0.66403359388316	-0.5690682142710206	0.2901978515956117
0.579069583351562	0.19135679994542182	-0.2863049503029219	-0.17271693629888452	1.4449459379929055	1.0771758557234898	-2.223082340578532	0.5592257868912653	0.1160690638593355	-0.21016474528590595	-0.14672186437037055
0.28837436171919906	-0.14172362017138612	1.7745480561419797	0.19912005171277944	1.5465810708256325	-0.47552847851536484	2.062258619968926	0.20636237872644508	-0.8200541254316591	1.2254491306545527	0.021324180231930313
-0.9616150912999618	-0.6913063133641193	0.6296297192281455	1.2470242906547415	-0.3082601033716329	-0.08735239495565118	0.2854099290102241	-1.0286595498504258	-1.1320951885286572	-0.21016474528590595	0.9959912389252753
-0.7581284361573077	-0.5747281663232364	0.7441215529195289	0.9427940277361073	-0.07958105449799746	-1.2518806456347922	-0.6901148424965143	-0.6757961416856055	-2.068218377819652	-0.8083371935944305	0.4918531051183727
-0.7581284361573077	-0.5747281663232364	-0.7442722850684556	1.449844465933831	0.6826824417474541	0.27656268338158035	0.355090269832134	-0.8522278457680157	0.4281101269563337	-0.44943372460931574	1.533738581652638
-0.32208560370876327	-0.3249178512356305	0.4006460518453786	0.46954695208489866	0.4794121760820003	0.03395263115675934	-0.16751228633219015	-0.3229327335207853	-0.66403359388316	-0.09053025562420107	0.32380706051607183
-0.9616150912999618	-0.6913063133641193	0.05717055077122835	0.36813686444535393	-1.5278816973643554	0.6889997721637762	-0.2546127123595775	-1.0286595498504258	-0.5080130623346609	-0.3297992349476109	0.2565886426751515
2.1778933023295584	1.1073279552666437	0.6296297192281455	-1.6262615257990254	0.8605439242047261	0.3978677094939909	-1.1081968874279735	2.1471111236329565	0.896171721601831	1.3450836203162577	-1.423871803347857
1.3348771595957059	1.0074038292316014	-1.2022396198339893	-0.9501942748687273	1.21626688911927	-0.6210945098502575	0.5118710366814313	1.441384307303316	1.8322949108928255	0.14873872369920874	-0.5500323714158926
-0.8453370026470166	-0.6246902293407577	-0.5152886176856888	0.6385637648174732	-0.7910269843270855	-0.35422345240295433	-0.4288135644143522	-0.8522278457680157	-0.0399514676891636	-0.5690682142710206	0.6262899408002134
-0.8162674804837804	-0.6080362083349172	0.515137885536762	0.8413839400965626	-0.4098952362043598	-0.49978948373784693	-0.09783194551028025	-0.8522278457680157	1.05219225315033	1.3450836203162577	1.0632096567661957
-0.40929417019847214	-0.3748799142531517	-0.17181311661153847	0.0977099640732347	-0.33366888657981464	1.0529148505010077	-0.39397339400339726	-0.3229327335207853	1.05219225315033	0.6272766823460283	0.32380706051607183
-0.6127808253411262	-0.49145806129403447	-0.40079678399430535	0.16531668916626452	-0.7910269843270855	0.7375217826087404	-0.16751228633219015	-0.6757961416856055	-0.0399514676891636	-0.44943372460931574	0.155761015913771
-0.40929417019847214	6.253420446071327	1.0875970539936792	0.5371536771779285	0.37777704324927347	-2.2223208545340762	-0.9514161205786763	-0.3229327335207853	-0.66403359388316	0.6272766823460283	0.3910254783569922
0.17209627306625386	5.021022891639137	-0.057321282920155064	-0.375537111577974	0.19991556079200143	0.5676947460513656	-0.9165759501677214	0.20636237872644508	-0.0399514676891636	-0.09053025562420107	-0.38198632681359174
-1.077893179952907	-0.7579223973874809	0.17166238446261178	0.8751873026430775	-1.2483850820743565	-0.5483114941828111	-0.010731519482892896	-1.0286595498504258	-0.0399514676891636	0.14873872369920874	0.8615544032434346
-0.8453370026470166	-0.6246902293407577	-0.40079678399430535	1.0104007528291372	-0.2574425369552695	0.5434337408288835	-0.04557168989384784	-0.8522278457680157	-0.3519925307861618	-0.6887027039327256	0.9287728210843549
0.5209305390250895	0.20801082095126222	0.2861542181539952	-0.03750348611282491	1.597398637241996	-0.5968335046277754	-2.240502425784009	0.5592257868912653	-0.9760746569801582	-0.44943372460931574	-0.24754949113175106
-0.46743321452494474	-0.4081879562648325	-0.057321282920155064	0.6723671273639881	0.40318582645745515	0.3493456990490267	0.07636890654449446	-0.49936443760319543	0.2720895954078346	0.14873872369920874	0.727117567561594
-0.7581284361573077	-0.5747281663232364	4.636843898426565	1.6864680037594353	1.038405406661998	-1.7613617553069163	2.3409799832565654	-0.6757961416856055	-1.9121978462711526	3.378869944565241	1.2648649102889566
0.8406952828206887	0.29128092598046423	-0.2863049503029219	-0.713570737043123	0.8859527074129078	0.883087813943633	-1.8050002956470725	0.9120891950560855	-0.0399514676891636	-0.3297992349476109	-0.7180784160181934
-0.20580751505581807	-0.2249937252005881	0.9731052203022957	0.43574358953838377	0.7335000081638176	-1.6157957239720238	-1.4740186767430006	-0.3229327335207853	1.05219225315033	1.8236215789630772	0.6598991497206735
-0.7290589139940714	-0.5580741453173961	0.4006460518453786	0.13151332661974963	-1.1721587324498113	0.27656268338158035	-0.39397339400339726	-0.6757961416856055	1.05219225315033	1.2254491306545527	0.35741626943653204
-0.8162674804837804	-0.6080362083349172	-0.057321282920155064	-0.10511021120585472	-1.7819695294461726	0.5919557512738477	0.2331496733937917	-0.8522278457680157	-0.3519925307861618	-0.3297992349476109	-0.1803310732908307
-1.1360322242793797	-0.7912304393991616	1.4310725550678294	0.5371536771779285	-1.909013445487081	0.6647387669412941	-0.010731519482892896	-1.205091253932836	-1.6001567831741546	0.26837321336091363	0.18937022483423116
-0.23487703721905437	-0.2749557882181093	0.515137885536762	-0.20652029884539944	-0.4098952362043598	1.0043928400560436	0.5118710366814313	-0.14650102943837517	-0.0399514676891636	0.5076421926843234	-0.21394028221129088
-0.58371130317789	-0.6080362083349172	-0.40079678399430535	0.6385637648174732	0.022054078334729412	0.5676947460513656	0.1112090769554494	-0.8522278457680157	-1.1320951885286572	-1.28687515224125	0.3910254783569922
-0.20580751505581807	-0.4581500192823537	-0.5152886176856888	-0.4093404741244889	-0.6893918514943587	0.6404777617188119	0.3028300142157016	-0.14650102943837517	0.5841306585048328	-0.09053025562420107	-0.2811587000522112
-0.7871979583205441	-0.5913821873290769	-0.7442722850684556	0.26672677680580925	-1.1467499492416295	-1.1063146142998996	-0.028151604688370368	-0.8522278457680157	1.5202538477958274	0.3880077030226185	0.5926807318797532
-0.9906846134631981	-0.7079603343699596	0.4006460518453786	0.4019402269918689	-1.6041080469889004	-0.5483114941828111	0.33767018462665654	-1.0286595498504258	-0.1959719992376627	0.26837321336091363	0.35741626943653204
-0.002320859913163955	-0.14172362017138612	-0.5152886176856888	0.0977099640732347	0.6572736585392723	0.6162167564963298	0.44219069585952137	0.02993067464403496	-0.3519925307861618	-0.8083371935944305	0.021324180231930313
0.31744388388243533	0.04147061089285825	-1.3167314535253727	-0.27412702393842925	0.7080912249556358	0.10673564682420565	-0.3765533087979198	0.20636237872644508	0.5841306585048328	-0.9279716832561353	-0.14672186437037055
-0.8162674804837804	-0.6080362083349172	0.515137885536762	0.9765973902826223	-0.20662497053890605	0.8345658034986687	-0.2023524567431451	-0.6757961416856055	-1.1320951885286572	-0.3297992349476109	0.727117567561594
-0.8162674804837804	-0.6080362083349172	0.4006460518453786	1.0104007528291372	-0.1558074041225426	-1.1063146142998996	-0.16751228633219015	-0.8522278457680157	-0.1959719992376627	0.26837321336091363	0.9623820300048151
0.46279149469861686	5.021022891639137	-0.2863049503029219	-0.4093404741244889	0.7589087913719992	0.7132607773862583	-1.1778772282498835	0.38279408280885524	-0.1959719992376627	-0.44943372460931574	-0.4492047446545121
-0.7290589139940714	-0.5580741453173961	-0.17181311661153847	-0.20652029884539944	-1.6803343966134456	0.8345658034986687	0.32025009942117905	-0.8522278457680157	-0.0399514676891636	-0.21016474528590595	-0.21394028221129088
-0.9034760469734893	-0.6579982713524385	1.5455643887592128	0.46954695208489866	-1.2229762988661748	0.13099665204668776	0.355090269832134	-0.8522278457680157	-1.9121978462711526	0.14873872369920874	0.05493338915239049
-0.8744065248102529	-0.641344250346598	-0.7442722850684556	1.078007477922167	-0.2574425369552695	-0.01456937928820487	-0.04557168989384784	-0.8522278457680157	-0.1959719992376627	-0.9279716832561353	1.0296004478457355
-0.8453370026470166	-0.6246902293407577	-0.7442722850684556	0.5371536771779285	-0.9434796835761758	-0.47552847851536484	-0.3417131383869649	-0.8522278457680157	0.7401511900533319	-0.21016474528590595	0.6935083586411337
0.6081391055147983	0.20801082095126222	-1.2022396198339893	-0.7811774621361528	0.3015506936247283	-0.038830384510686974	-0.08041186030480278	0.5592257868912653	0.1160690638593355	-1.167240662579545	-0.7516876249386536
-0.7871979583205441	-0.5913821873290769	-0.5152886176856888	1.0104007528291372	-0.05417227128981574	0.08247464160172355	-0.3591332235924423	-0.8522278457680157	-0.8200541254316591	-1.167240662579545	0.8279451943229744
-1.0197541356264344	-0.7246143553758001	-0.7442722850684556	1.5174511910268607	-0.1558074041225426	-0.8394435568525964	-0.7075349277019918	-1.0286595498504258	0.7401511900533319	-0.21016474528590595	1.6681754173344787
-0.8162674804837804	-0.6080362083349172	-0.6297804513770722	0.23292341425929433	-1.2737938652825382	1.0771758557234898	0.49445095147595375	-0.6757961416856055	-0.3519925307861618	-0.9279716832561353	0.155761015913771
-0.8453370026470166	-0.6246902293407577	-0.9732559524512224	1.6188612786664054	0.6318648753310906	0.4706507251614372	0.5467112070923862	-0.8522278457680157	0.4281101269563337	-0.6887027039327256	1.7017846262549388
-0.7871979583205441	-0.5913821873290769	1.0875970539936792	0.6723671273639881	-0.5623479354534501	0.009691625934277233	0.4073505254485664	-0.8522278457680157	1.208212784698829	2.062890558286487	0.9287728210843549
0.6953476720045072	0.25797288396878343	0.05717055077122835	-0.8825875497756975	0.2507331272083649	0.8345658034986687	0.355090269832134	0.7356574909736755	0.7401511900533319	0.6272766823460283	-0.7180784160181934
-0.7290589139940714	-0.5580741453173961	0.2861542181539952	0.4019402269918689	-0.7910269843270855	0.7860437930537045	0.2331496733937917	-0.6757961416856055	-0.5080130623346609	-0.09053025562420107	0.2901978515956117
1.0151124158001066	0.4411671150330278	-0.40079678399430535	-1.2206211752408467	0.09828042795927457	0.8345658034986687	0.21572958818831423	1.0885208991384958	0.1160690638593355	-0.3297992349476109	-1.1886073409046358
0.055818184413308644	-0.10841557815970533	0.515137885536762	-0.4093404741244889	-0.10498983770617917	0.6647387669412941	-0.272032797565055	0.02993067464403496	-1.4441362516256555	-0.5690682142710206	-0.7180784160181934
-1.1069627021161434	-0.7745764183933213	0.6296297192281455	0.9089906651895925	-1.29920264849072	0.27656268338158035	-0.2023524567431451	-1.0286595498504258	-0.66403359388316	0.14873872369920874	0.7607267764820541
0.17209627306625386	-0.04179949413634374	-0.7442722850684556	-0.03750348611282491	0.8351351409965444	-0.524050488960329	0.07636890654449446	0.20636237872644508	-1.1320951885286572	-1.6457786212263648	-0.2811587000522112
-0.7581284361573077	-0.5747281663232364	0.8586133866109122	0.43574358953838377	-0.8164357675352673	0.6162167564963298	0.3899304402430889	-0.6757961416856055	-0.9760746569801582	0.14873872369920874	0.22297943375469134
2.3523104353089765	0.9574417662140802	-1.431223287216756	-1.9304917887176596	0.32695947683291005	-1.7128397448619521	-0.6726947572910368	2.3235428277153667	0.896171721601831	-0.8083371935944305	-1.7263546836319985
-0.7290589139940714	-0.5580741453173961	-0.7442722850684556	0.6047604022709583	-0.4861215858289049	0.5434337408288835	0.1112090769554494	-0.8522278457680157	1.208212784698829	0.14873872369920874	0.8615544032434346
0.7244171941677435	0.07477865290453904	0.2861542181539952	-0.03750348611282491	2.029347951781085	-1.4944906978596133	-0.7597951833184242	0.5592257868912653	-0.3519925307861618	0.02910423403750383	-0.11311265544991037
-0.7290589139940714	-0.5580741453173961	-0.40079678399430535	1.3146310157477712	0.5810473089147272	0.17951866249165196	0.8080124851745483	-0.6757961416856055	1.05219225315033	0.3880077030226185	1.533738581652638
-0.7290589139940714	-0.5580741453173961	0.6296297192281455	0.5033503146314136	-0.6385742850779953	0.8588268087211509	0.355090269832134	-0.6757961416856055	-0.5080130623346609	0.26837321336091363	0.3910254783569922
-0.23487703721905437	-0.2749557882181093	1.8890398898333631	1.2470242906547415	2.0547567349892666	-1.0335315986324531	1.2783547857224398	-0.3229327335207853	-0.3519925307861618	1.7039870893013724	1.164037283527576
-0.7581284361573077	-0.5747281663232364	-0.40079678399430535	0.5033503146314136	-0.7148006347025404	0.37360670427150877	0.19830950298283676	-0.8522278457680157	-1.2881157200771565	-1.4065096419029548	0.22297943375469134
0.6953476720045072	0.25797288396878343	-0.6297804513770722	-0.6797673744966081	0.6572736585392723	0.7860437930537045	-1.5785391879758655	0.7356574909736755	1.3642333162473284	0.3880077030226185	-0.38198632681359174
-0.7290589139940714	-0.5580741453173961	0.6296297192281455	1.3484343782942863	0.6318648753310906	-0.49978948373784693	-0.028151604688370368	-0.6757961416856055	-1.4441362516256555	-0.44943372460931574	1.0296004478457355
-0.9034760469734893	-0.6579982713524385	2.46149905829028	1.1794175655617116	-0.20662497053890605	-0.2329184262905438	-1.264977654277271	-0.8522278457680157	1.5202538477958274	3.7377734135503555	1.5001293727321778
-0.8162674804837804	-0.6080362083349172	0.515137885536762	0.36813686444535393	-1.095932382825266	0.3978677094939909	-0.08041186030480278	-0.8522278457680157	-0.5080130623346609	0.14873872369920874	0.2565886426751515
0.11395722873978124	-0.07510753614802454	-0.17181311661153847	-0.30793038648494414	0.19991556079200143	0.8588268087211509	0.19830950298283676	0.02993067464403496	-0.0399514676891636	-0.21016474528590595	-0.3147679089726714
-0.26394655938229067	-0.4081879562648325	-0.858764118759839	-0.24032366139191433	-0.5369391522452683	0.9558708296110793	0.16346933257188181	-0.3229327335207853	0.896171721601831	-0.21016474528590595	-0.04589423760899003
-0.9325455691367256	-0.6746522923582788	0.05717055077122835	0.6047604022709583	-1.1213411660334478	-0.7181385307401859	-0.899155864962244	-0.8522278457680157	0.1160690638593355	0.14873872369920874	0.6262899408002134
-0.17673799289258177	-0.2416477462064285	0.515137885536762	-0.24032366139191433	-0.33366888657981464	0.4949117303839193	-0.3591332235924423	-0.14650102943837517	-0.0399514676891636	0.5076421926843234	-0.24754949113175106
-0.7581284361573077	-0.5747281663232364	-0.858764118759839	0.9427940277361073	-0.07958105449799746	-0.76666054118515	-0.23719262715410003	-0.8522278457680157	1.5202538477958274	0.26837321336091363	1.2648649102889566
-0.8744065248102529	-0.641344250346598	-0.2863049503029219	0.7737772150035328	-0.6893918514943587	-0.281440436735508	0.21572958818831423	-0.8522278457680157	1.3642333162473284	0.7469111720077332	1.0632096567661957
-0.7581284361573077	-0.5747281663232364	-0.6297804513770722	0.706170489910503	-0.4098952362043598	0.8103047982761866	0.26798984380474666	-0.8522278457680157	-0.0399514676891636	-0.6887027039327256	0.6935083586411337
-0.7871979583205441	-0.5913821873290769	-1.087747786142606	0.46954695208489866	-0.841844550743449	0.6404777617188119	0.05894882133901699	-0.6757961416856055	0.1160690638593355	-1.0476061729178403	0.4918531051183727
-0.20580751505581807	0.02481658988701785	-0.2863049503029219	0.4019402269918689	0.6826824417474541	0.17951866249165196	-0.010731519482892896	-0.3229327335207853	-0.3519925307861618	-0.5690682142710206	0.32380706051607183
1.2185990709427605	0.5577452620739106	-0.17181311661153847	-1.1530144501478168	0.5810473089147272	1.0043928400560436	-0.010731519482892896	1.0885208991384958	-0.9760746569801582	-0.9279716832561353	-1.3566533855069367
-0.7290589139940714	-0.5580741453173961	0.17166238446261178	0.9427940277361073	0.022054078334729412	0.5434337408288835	0.19830950298283676	-0.6757961416856055	-0.5080130623346609	-0.21016474528590595	0.8279451943229744
-1.1651017464426159	-0.8078844604050021	0.05717055077122835	2.193518441957159	0.12368921116745628	0.3493456990490267	0.21572958818831423	-1.0286595498504258	0.7401511900533319	0.6272766823460283	2.3403595957436822
-0.9616150912999618	-0.6246902293407577	-0.057321282920155064	0.6723671273639881	-1.1213411660334478	-0.35422345240295433	-0.3765533087979198	-0.8522278457680157	-0.0399514676891636	-0.09053025562420107	0.6598991497206735
-0.9325455691367256	-0.6746522923582788	-0.5152886176856888	1.416041103387316	0.022054078334729412	0.422128714716473	0.4073505254485664	-1.0286595498504258	-0.0399514676891636	-0.5690682142710206	1.3993017459707973
-0.8162674804837804	-0.6080362083349172	-0.2863049503029219	0.9765973902826223	-0.20662497053890605	0.22804067293661617	0.4596107810649988	-0.6757961416856055	0.1160690638593355	-0.21016474528590595	0.9959912389252753
0.026748662250072344	0.24131886296294303	0.515137885536762	0.6723671273639881	1.775260119699268	-1.0577926038549352	0.3899304402430889	-0.14650102943837517	-0.3519925307861618	0.26837321336091363	0.5926807318797532
-0.26394655938229067	-0.2916098092239497	0.2861542181539952	0.0301032389802049	-0.07958105449799746	-0.7181385307401859	-0.4288135644143522	-0.3229327335207853	-0.1959719992376627	0.14873872369920874	-0.012285028688529856
-0.9034760469734893	-0.6579982713524385	1.7745480561419797	0.13151332661974963	-1.7057431798216274	-0.9122265725200427	-0.3417131383869649	-1.0286595498504258	-2.068218377819652	0.26837321336091363	-0.3147679089726714
-0.9906846134631981	-0.7079603343699596	2.46149905829028	1.382237740840801	-0.2574425369552695	-0.5968335046277754	-0.5855943312636495	-1.0286595498504258	-0.0399514676891636	2.5414285169333066	1.3656925370503372
-0.7290589139940714	-0.5580741453173961	1.2020888876850626	0.30053013935232414	-0.9434796835761758	0.15525765726916985	0.16346933257188181	-0.6757961416856055	-0.1959719992376627	1.105814640992848	0.2565886426751515
0.20116579522949016	-0.025145473130503342	-1.087747786142606	-0.9163909123222125	-0.7402094179107221	0.8345658034986687	1.20867444490053	0.20636237872644508	0.2720895954078346	-0.9279716832561353	-0.8525152517000342
-0.17673799289258177	-0.3082638302297901	1.7745480561419797	0.7737772150035328	1.419537154784724	1.1984808818359003	3.5255457772290337	-0.14650102943837517	-0.3519925307861618	1.5843525996396675	0.6935083586411337
0.23023531739272646	0.30793494698630464	0.05717055077122835	0.19912005171277944	1.3941283715765422	-0.038830384510686974	-1.1430370578389286	0.20636237872644508	0.7401511900533319	0.6272766823460283	0.35741626943653204
0.666278149841271	0.8575176401790378	-0.5152886176856888	-1.3558346254269062	-0.7402094179107221	0.7617827878312224	2.358400068462043	0.7356574909736755	0.4281101269563337	-0.21016474528590595	-1.2558257587455561
-0.35115512587199954	-0.7745764183933213	-0.17181311661153847	1.044204115375652	1.3687195883683605	0.3978677094939909	0.19830950298283676	-0.3229327335207853	-0.0399514676891636	-0.21016474528590595	1.0296004478457355
-0.8744065248102529	-0.641344250346598	0.4006460518453786	1.3484343782942863	0.149097994375638	-1.9554497970867732	-0.23719262715410003	-0.8522278457680157	0.2720895954078346	0.6272766823460283	1.3993017459707973
0.6081391055147983	0.20801082095126222	-0.6297804513770722	-0.713570737043123	0.45400339287381863	1.0043928400560436	0.4770308662704763	0.5592257868912653	1.5202538477958274	0.5076421926843234	-0.38198632681359174
-0.17673799289258177	-0.2416477462064285	-1.3167314535253727	-0.30793038648494414	-0.4353040194125415	0.8345658034986687	-0.028151604688370368	-0.14650102943837517	0.5841306585048328	-0.9279716832561353	-0.1803310732908307
0.34651340604567166	1.9233749845528232	-0.057321282920155064	0.5709570397244433	2.385070916695629	-1.445968687414649	1.4177154673662595	0.38279408280885524	-0.1959719992376627	-0.21016474528590595	0.5254623140388329
-0.9616150912999618	-0.6913063133641193	2.919466393055814	1.6526646412129202	0.2507331272083649	0.6404777617188119	-0.23719262715410003	-1.0286595498504258	-0.66403359388316	2.5414285169333066	1.5001293727321778
0.9569733714736339	0.407859073021347	-0.17181311661153847	-1.0854077250547869	0.3015506936247283	1.2470028922808645	-0.6030144164691269	0.9120891950560855	0.1160690638593355	-0.09053025562420107	-1.0541705052227952
-0.20580751505581807	-0.25830176721226894	0.515137885536762	0.43574358953838377	0.7335000081638176	-2.7075409589837185	-0.3765533087979198	-0.3229327335207853	-1.4441362516256555	-0.5690682142710206	0.12215180699331082
-0.6709198696675989	3.88854946324199	1.316580721376446	0.5033503146314136	-0.4607128026207232	0.25230167815909826	2.898422709831845	-0.6757961416856055	-0.9760746569801582	0.6272766823460283	0.2901978515956117
-0.5546417810146537	-0.4581500192823537	-0.40079678399430535	-0.07130684865933981	-0.9942972499925393	0.6647387669412941	0.16346933257188181	-0.49936443760319543	-0.3519925307861618	-0.6887027039327256	-0.14672186437037055
-0.7871979583205441	-0.5913821873290769	0.2861542181539952	0.8075805775500478	-0.3590776697879963	-0.9364875777425248	-0.7075349277019918	-0.6757961416856055	-0.5080130623346609	-0.09053025562420107	0.6935083586411337
0.869764804983925	0.3578970100038258	-0.858764118759839	-0.747374099589638	0.8605439242047261	0.6404777617188119	-0.04557168989384784	0.9120891950560855	0.2720895954078346	-0.6887027039327256	-0.6844692070977333
-0.6418503475043625	-0.5081120822998749	-0.6297804513770722	0.6385637648174732	-0.1558074041225426	-0.7909215464076322	0.2331496733937917	-0.49936443760319543	0.2720895954078346	-0.44943372460931574	0.6935083586411337
-0.32208560370876327	-0.3249178512356305	-0.7442722850684556	-0.24032366139191433	-0.6893918514943587	-0.038830384510686974	-0.16751228633219015	-0.3229327335207853	-0.1959719992376627	-0.9279716832561353	-0.2811587000522112
-0.7871979583205441	-0.5913821873290769	-0.2863049503029219	0.9765973902826223	-0.10498983770617917	0.4949117303839193	0.5467112070923862	-0.6757961416856055	-0.1959719992376627	-0.44943372460931574	0.9287728210843549
1.1023209822898155	4.554710303475606	-0.6297804513770722	-1.7276716134385701	-0.841844550743449	0.5434337408288835	-0.7249550129074692	1.2649526032209057	-0.0399514676891636	-0.6887027039327256	-1.7263546836319985
-0.8453370026470166	-0.6246902293407577	-0.5152886176856888	1.0104007528291372	-0.2574425369552695	0.422128714716473	-0.09783194551028025	-0.8522278457680157	-0.0399514676891636	-0.5690682142710206	0.9959912389252753
-1.0488236577896708	-0.7412683763816404	-0.6297804513770722	1.5850579161198906	-0.18121618733072434	-0.7181385307401859	-0.3765533087979198	-1.0286595498504258	-0.1959719992376627	-0.8083371935944305	1.533738581652638
-0.9616150912999618	-0.6913063133641193	-0.5152886176856888	0.8413839400965626	-0.8672533339516307	0.7132607773862583	0.3899304402430889	-1.0286595498504258	0.2720895954078346	-0.3297992349476109	0.8951636121638947
-0.8453370026470166	-0.6246902293407577	-0.5152886176856888	0.9089906651895925	-0.38448645299617806	0.5434337408288835	0.26798984380474666	-0.8522278457680157	0.2720895954078346	-0.3297992349476109	0.9623820300048151
0.8406952828206887	3.88854946324199	-0.6297804513770722	-1.2206211752408467	-0.18121618733072434	0.27656268338158035	-1.3520780803046584	0.7356574909736755	0.1160690638593355	-0.5690682142710206	-1.1886073409046358
-0.7581284361573077	-0.5747281663232364	-0.2863049503029219	0.706170489910503	-0.4098952362043598	-0.5725724994052932	-0.04557168989384784	-0.8522278457680157	0.5841306585048328	0.14873872369920874	0.8279451943229744
0.5209305390250895	0.15804875793374104	-0.6297804513770722	-0.8825875497756975	-0.05417227128981574	0.8345658034986687	0.1112090769554494	0.5592257868912653	1.05219225315033	0.14873872369920874	-0.6508599981772731
0.34651340604567166	0.15804875793374104	0.05717055077122835	-0.34173374903145903	0.6318648753310906	1.125697866168454	0.19830950298283676	0.20636237872644508	-0.1959719992376627	-0.09053025562420107	-0.38198632681359174
-0.9325455691367256	-0.6746522923582788	-0.2863049503029219	1.4836478284803458	0.09828042795927457	-0.8637045620750785	-0.9688362057841539	-0.8522278457680157	0.2720895954078346	-0.09053025562420107	1.533738581652638
-0.5546417810146537	-0.4581500192823537	-0.9732559524512224	-0.24032366139191433	-1.2737938652825382	0.8103047982761866	-0.08041186030480278	-0.6757961416856055	0.2720895954078346	-0.8083371935944305	-0.1803310732908307
0.5500000611883258	0.17470277893958144	0.05717055077122835	-0.13891357375236962	1.4703547212010872	-0.49978948373784693	-0.6030144164691269	0.5592257868912653	0.7401511900533319	0.6272766823460283	0.021324180231930313
0.46279149469861686	5.803761878913636	-0.17181311661153847	-0.8825875497756975	-0.1558074041225426	-0.7181385307401859	-0.16751228633219015	0.38279408280885524	0.896171721601831	0.5076421926843234	-0.6844692070977333
1.2185990709427605	1.290522186330888	-1.087747786142606	-1.051604362508272	0.8097263577883627	0.5191727356064014	0.3899304402430889	1.2649526032209057	0.1160690638593355	-1.0476061729178403	-1.020561296302335
-0.9325455691367256	-0.6746522923582788	-0.057321282920155064	0.9765973902826223	-0.5877567186616318	-0.42700646807040066	-0.2023524567431451	-1.0286595498504258	-0.66403359388316	-0.5690682142710206	0.8279451943229744
-0.9906846134631981	-0.7079603343699596	1.4310725550678294	0.9427940277361073	-0.841844550743449	0.7860437930537045	0.25056975859926917	-0.8522278457680157	-1.7561773147226536	0.14873872369920874	0.5590715229592931
-1.0488236577896708	-0.7412683763816404	0.6296297192281455	0.8751873026430775	-1.1467499492416295	0.10673564682420565	-0.2546127123595775	-1.205091253932836	-0.1959719992376627	0.5076421926843234	0.8279451943229744
1.0151124158001066	0.574399283079751	0.4006460518453786	-0.6121606494035783	1.3941283715765422	0.8103047982761866	-0.533334075647217	1.0885208991384958	0.7401511900533319	0.986180151331143	-0.4492047446545121
-0.9616150912999618	4.121705757323755	-0.5152886176856888	1.6864680037594353	0.3015506936247283	-0.8637045620750785	-0.16751228633219015	-1.0286595498504258	-1.2881157200771565	-1.5261441315646598	1.3993017459707973
-0.14766847072934547	-0.2249937252005881	2.347007224598897	0.16531668916626452	0.4285946096656369	0.5676947460513656	0.024108650928062046	-0.14650102943837517	0.1160690638593355	2.5414285169333066	0.18937022483423116
-0.6999893918308352	-0.5414201243115557	-0.057321282920155064	0.6723671273639881	-0.2574425369552695	0.03395263115675934	0.12862916216092687	-0.6757961416856055	0.4281101269563337	0.26837321336091363	0.7607267764820541
1.1313905044530517	0.5077831990563894	-0.5152886176856888	-1.0854077250547869	0.606456092122909	0.8588268087211509	-0.2023524567431451	1.0885208991384958	1.05219225315033	0.26837321336091363	-0.8525152517000342
-0.7290589139940714	-0.5747281663232364	-0.6297804513770722	0.0301032389802049	-1.3246114316989017	-0.7181385307401859	0.041528736133539516	-0.6757961416856055	-0.66403359388316	-1.167240662579545	-0.11311265544991037
0.43372197253538053	0.12474071592206024	-0.17181311661153847	-0.5445539243105485	0.4285946096656369	-1.5915347187495417	-0.272032797565055	0.5592257868912653	0.2720895954078346	0.02910423403750383	-0.48281395357497225
0.40465245037214426	0.09143267391037944	-0.5152886176856888	0.9765973902826223	3.299787112190171	0.8345658034986687	-0.18493237153766762	0.20636237872644508	-0.8200541254316591	-1.167240662579545	0.7943359854025143
-0.6127808253411262	-0.6579982713524385	1.6600562224505961	1.416041103387316	1.1146317562865433	2.6541411951848266	-0.6030144164691269	-0.6757961416856055	-1.7561773147226536	0.3880077030226185	1.0296004478457355
-0.6418503475043625	-0.5081120822998749	-0.40079678399430535	0.30053013935232414	-0.6639830682861769	0.5919557512738477	0.16346933257188181	-0.6757961416856055	0.7401511900533319	0.14873872369920874	0.45824389619791256
-0.9906846134631981	-0.7079603343699596	-0.6297804513770722	1.78787809139898	0.3015506936247283	-0.281440436735508	1.7312770010648542	-1.0286595498504258	-0.0399514676891636	-0.6887027039327256	1.7690030440958593
0.6372086276780347	0.22466484195710262	-0.7442722850684556	-1.389637987973421	-0.841844550743449	-0.5483114941828111	0.5292911218869087	0.7356574909736755	0.4281101269563337	-0.44943372460931574	-1.2894349676660164
-0.7871979583205441	-0.5913821873290769	1.5455643887592128	0.43574358953838377	-0.8926621171598124	0.05821363637924144	-0.41139347920887476	-0.6757961416856055	1.05219225315033	2.4217940272716016	0.6598991497206735
-0.6127808253411262	-0.3915339352589921	2.8049745593644304	0.6723671273639881	-0.028763488081634023	-1.5187517030820954	-0.9165759501677214	-0.6757961416856055	-4.408526351047138	-0.44943372460931574	-0.2811587000522112
-0.8744065248102529	-0.641344250346598	0.9731052203022957	1.3484343782942863	0.149097994375638	-0.4027454628479185	-0.3417131383869649	-0.8522278457680157	-0.66403359388316	0.5076421926843234	1.1976464924480363
-0.11859894856610916	-0.20833970419474773	0.2861542181539952	0.43574358953838377	0.962179057037453	1.149958871390936	-1.0210964614005862	-0.14650102943837517	-0.1959719992376627	0.14873872369920874	0.3910254783569922
0.5209305390250895	0.6410153671031126	0.17166238446261178	-0.6459640119500932	0.40318582645745515	0.5676947460513656	-2.257922510989487	0.5592257868912653	-0.66403359388316	-0.3297992349476109	-0.7852968338591138
1.0151124158001066	0.6410153671031126	0.05717055077122835	-0.6459640119500932	1.317902021951997	-1.0820536090774173	-0.4288135644143522	1.0885208991384958	1.3642333162473284	1.105814640992848	-0.3483771178931316
-0.8453370026470166	-0.6246902293407577	0.2861542181539952	0.36813686444535393	-1.1721587324498113	0.20377966771413406	-0.9165759501677214	-0.8522278457680157	0.7401511900533319	0.8665456616694381	0.5254623140388329
0.49186101686185313	0.14139473692790064	-0.9732559524512224	-0.5783572868570633	0.4794121760820003	0.6162167564963298	-0.8120554389348565	0.5592257868912653	0.2720895954078346	-0.8083371935944305	-0.5164231624954324
-0.7581284361573077	-0.5747281663232364	-0.5152886176856888	1.2470242906547415	0.37777704324927347	0.22804067293661617	-0.272032797565055	-0.8522278457680157	0.896171721601831	0.14873872369920874	1.4329109548912575
-0.8744065248102529	-0.641344250346598	0.2861542181539952	0.8075805775500478	-0.6385742850779953	0.6647387669412941	0.355090269832134	-0.8522278457680157	-0.66403359388316	-0.21016474528590595	0.6598991497206735
-0.49650273668818107	-0.4248419772706729	-0.6297804513770722	0.6047604022709583	0.22532434400018314	-0.8879655672975606	-1.4391785063320457	-0.49936443760319543	1.208212784698829	0.26837321336091363	0.8615544032434346
0.43372197253538053	0.4411671150330278	-0.5152886176856888	-0.4093404741244889	0.7080912249556358	-1.5430127083045775	-0.28945288277053244	0.38279408280885524	-1.1320951885286572	-1.4065096419029548	-0.6508599981772731
-0.8744065248102529	-0.641344250346598	-0.2863049503029219	1.044204115375652	-0.3082601033716329	0.8588268087211509	0.18088941777735928	-0.8522278457680157	-0.66403359388316	-0.8083371935944305	0.8951636121638947
-0.7581284361573077	-0.5747281663232364	0.05717055077122835	0.6047604022709583	-0.5623479354534501	-0.9850095881874891	-0.028151604688370368	-0.8522278457680157	-0.0399514676891636	0.02910423403750383	0.5926807318797532
-0.40929417019847214	2.472957677745556	-0.2863049503029219	-0.03750348611282491	-0.5623479354534501	-0.08735239495565118	3.560385947639989	-0.3229327335207853	-0.1959719992376627	-0.44943372460931574	-0.0795034465294502
0.08488770657654494	-0.6080362083349172	-1.087747786142606	-0.03750348611282491	0.6318648753310906	0.3008236886040625	-1.9095208068799374	0.02993067464403496	1.05219225315033	-0.3297992349476109	0.18937022483423116
-0.9325455691367256	-0.6746522923582788	0.17166238446261178	0.5033503146314136	-1.2483850820743565	0.15525765726916985	-0.41139347920887476	-1.0286595498504258	-0.66403359388316	-0.3297992349476109	0.35741626943653204
-0.6418503475043625	-0.4414959982765133	-0.40079678399430535	0.9765973902826223	0.35236826004109173	-0.9364875777425248	-0.6901148424965143	-0.6757961416856055	-0.0399514676891636	-0.44943372460931574	0.9623820300048151
-1.077893179952907	-0.7579223973874809	-0.057321282920155064	1.6526646412129202	-0.20662497053890605	-0.5725724994052932	-0.46365373482530714	-1.0286595498504258	-0.5080130623346609	-0.44943372460931574	1.533738581652638
-0.7581284361573077	-0.5747281663232364	-0.858764118759839	0.16531668916626452	-1.2229762988661748	-0.35422345240295433	0.041528736133539516	-0.8522278457680157	0.1160690638593355	-0.8083371935944305	0.18937022483423116
-0.5255722588514173	-0.4414959982765133	0.17166238446261178	0.30053013935232414	-0.33366888657981464	0.5191727356064014	-0.09783194551028025	-0.49936443760319543	0.7401511900533319	0.7469111720077332	0.45824389619791256
0.08488770657654494	0.19135679994542182	0.2861542181539952	-0.10511021120585472	0.504820959290182	0.22804067293661617	2.7416419429825476	0.02993067464403496	-0.66403359388316	-0.21016474528590595	-0.24754949113175106
-0.35115512587199954	-0.3415718722414709	-0.2863049503029219	0.5033503146314136	0.4794121760820003	0.3978677094939909	0.1112090769554494	-0.3229327335207853	-0.1959719992376627	-0.44943372460931574	0.45824389619791256
-0.7290589139940714	-0.5580741453173961	0.2861542181539952	0.43574358953838377	-0.7402094179107221	-0.45126747329288275	-0.3591332235924423	-0.6757961416856055	0.7401511900533319	0.8665456616694381	0.5926807318797532
0.5209305390250895	0.15804875793374104	-1.087747786142606	-0.6459640119500932	0.40318582645745515	1.0286538452785257	0.4596107810649988	0.5592257868912653	0.7401511900533319	-0.5690682142710206	-0.48281395357497225
-0.5546417810146537	-0.4581500192823537	-0.057321282920155064	0.19912005171277944	-0.5877567186616318	0.9558708296110793	-0.5507541608526945	-0.49936443760319543	-0.66403359388316	-0.5690682142710206	0.05493338915239049
-0.9906846134631981	-0.7079603343699596	-0.5152886176856888	0.5033503146314136	-1.4516553477398102	0.7375217826087404	0.2854099290102241	-1.0286595498504258	-0.66403359388316	-1.0476061729178403	0.35741626943653204
-0.8453370026470166	-0.6246902293407577	-0.2863049503029219	0.36813686444535393	-1.1721587324498113	-0.6210945098502575	0.1112090769554494	-0.6757961416856055	0.1160690638593355	-0.21016474528590595	0.3910254783569922
0.14302675090301756	-0.05845351514218414	0.17166238446261178	-0.7811774621361528	-0.5877567186616318	-0.13587440540061538	-0.11525203071575772	0.02993067464403496	1.05219225315033	0.986180151331143	-0.5500323714158926
-0.8453370026470166	-0.6246902293407577	-0.5152886176856888	0.8751873026430775	-0.4353040194125415	0.4949117303839193	0.12862916216092687	-0.8522278457680157	-0.5080130623346609	-0.9279716832561353	0.7607267764820541
0.6081391055147983	0.20801082095126222	-0.5152886176856888	-0.5783572868570633	0.7080912249556358	0.4463897199389551	-0.18493237153766762	0.5592257868912653	-0.5080130623346609	-0.9279716832561353	-0.6844692070977333
-0.5255722588514173	-0.4414959982765133	0.17166238446261178	0.36813686444535393	-0.23203375374708776	-1.22761964041231	-0.6552746720855593	-0.49936443760319543	-0.9760746569801582	-0.5690682142710206	0.155761015913771
-0.9034760469734893	-0.6579982713524385	-0.6297804513770722	1.111810840468682	-0.3082601033716329	0.5919557512738477	0.09378899174997193	-1.0286595498504258	0.1160690638593355	-0.5690682142710206	1.130428074607116
-0.002320859913163955	-0.641344250346598	-0.7442722850684556	-0.17271693629888452	0.17450677758381972	1.0043928400560436	1.5222359785991244	-0.14650102943837517	0.2720895954078346	-0.5690682142710206	-0.11311265544991037
1.160460026616288	0.9074797031965589	-0.2863049503029219	-0.9501942748687273	0.9367702738292712	-0.7909215464076322	-1.6482195287977754	1.0885208991384958	-0.0399514676891636	-0.3297992349476109	-0.9533428784614146
1.5092942925751236	0.7575935141439953	-0.5152886176856888	-0.9839976374152423	1.419537154784724	1.1742198766134182	0.5989714627088186	1.441384307303316	0.2720895954078346	-0.3297992349476109	-0.9197336695409545
-0.7290589139940714	-0.5580741453173961	0.515137885536762	0.36813686444535393	-0.841844550743449	-0.32996244718047224	0.21572958818831423	-0.6757961416856055	-0.1959719992376627	0.3880077030226185	0.32380706051607183
-0.9034760469734893	-0.6579982713524385	-0.2863049503029219	1.449844465933831	0.17450677758381972	-0.32996244718047224	0.006688565722584575	-0.8522278457680157	0.1160690638593355	-0.21016474528590595	1.4665201638117176
-0.6999893918308352	-0.5414201243115557	0.05717055077122835	0.43574358953838377	-0.6131655018698136	0.4706507251614372	-0.28945288277053244	-0.6757961416856055	0.1160690638593355	0.14873872369920874	0.45824389619791256
1.4511552482486512	0.6909774301206337	-0.2863049503029219	-1.423441350519936	0.35236826004109173	1.3197859079483107	-0.010731519482892896	1.441384307303316	-0.9760746569801582	-1.0476061729178403	-1.6255270568706182
-0.8162674804837804	-0.6080362083349172	0.2861542181539952	1.2132209281082267	0.149097994375638	0.22804067293661617	0.2854099290102241	-0.8522278457680157	0.1160690638593355	0.3880077030226185	1.2312557013684964
0.37558292820890793	0.4578211360388682	0.8586133866109122	-0.10511021120585472	1.1654493227029068	-0.8151825516301143	1.6441765750374668	0.20636237872644508	0.7401511900533319	1.4647181099779625	0.05493338915239049
-0.8744065248102529	-0.641344250346598	-0.2863049503029219	1.5174511910268607	0.37777704324927347	0.37360670427150877	0.44219069585952137	-0.8522278457680157	-0.3519925307861618	-0.5690682142710206	1.4329109548912575
-0.7290589139940714	-0.5580741453173961	0.2861542181539952	0.4019402269918689	-0.7910269843270855	-1.3731856717472026	-0.9862562909896313	-0.6757961416856055	-1.4441362516256555	-0.8083371935944305	0.08854259807285066
-0.40929417019847214	-0.3748799142531517	-0.40079678399430535	-0.4093404741244889	-1.1721587324498113	-0.3057014419579901	-0.5159139904417396	-0.49936443760319543	0.5841306585048328	0.02910423403750383	-0.2811587000522112
-0.7290589139940714	-0.5580741453173961	-0.40079678399430535	0.0639066015267198	-1.2737938652825382	0.5434337408288835	0.07636890654449446	-0.8522278457680157	0.896171721601831	0.26837321336091363	0.2565886426751515
-0.7871979583205441	-0.5913821873290769	-0.2863049503029219	0.4019402269918689	-0.9434796835761758	-2.3436258806464867	-0.48107382003078464	-0.6757961416856055	-0.66403359388316	-0.8083371935944305	0.2565886426751515
-0.9034760469734893	-0.6579982713524385	0.05717055077122835	0.9089906651895925	-0.6131655018698136	0.13099665204668776	0.12862916216092687	-0.8522278457680157	0.1160690638593355	0.14873872369920874	0.9287728210843549
-1.0488236577896708	-0.7412683763816404	-0.17181311661153847	0.9427940277361073	-1.0451148164089028	-0.47552847851536484	-0.4288135644143522	-1.0286595498504258	0.2720895954078346	0.02910423403750383	0.9959912389252753
-0.7290589139940714	-0.5580741453173961	0.6296297192281455	0.5033503146314136	-0.6385742850779953	-2.2951038702015225	-0.08041186030480278	-0.6757961416856055	-1.1320951885286572	-0.21016474528590595	0.2565886426751515
0.6372086276780347	0.22466484195710262	-0.5152886176856888	-0.9501942748687273	0.022054078334729412	-0.6938775255177038	0.09378899174997193	0.5592257868912653	-0.9760746569801582	-1.28687515224125	-1.1549981319841756
0.08488770657654494	0.02481658988701785	2.11802355721613	-0.03750348611282491	0.6318648753310906	0.8345658034986687	-2.0663015737292345	0.02993067464403496	-0.66403359388316	1.7039870893013724	-0.1803310732908307
-0.5255722588514173	-0.4414959982765133	-0.17181311661153847	0.6723671273639881	0.2507331272083649	-0.6696165202952217	0.4073505254485664	-0.49936443760319543	-0.0399514676891636	-0.21016474528590595	0.6598991497206735
-0.7290589139940714	-0.5580741453173961	-0.5152886176856888	0.7399738524570179	-0.2828513201634512	0.5676947460513656	0.355090269832134	-0.6757961416856055	0.4281101269563337	-0.21016474528590595	0.8279451943229744
-0.7581284361573077	-0.5747281663232364	0.2861542181539952	0.6385637648174732	-0.5115303690370867	0.7132607773862583	0.05894882133901699	-0.6757961416856055	0.1160690638593355	0.3880077030226185	0.6598991497206735
-1.1069627021161434	-0.7745764183933213	0.05717055077122835	1.111810840468682	-1.0451148164089028	-0.1843964158455796	0.21572958818831423	-1.0286595498504258	-0.66403359388316	-0.44943372460931574	0.9623820300048151
-0.7290589139940714	-0.5580741453173961	-0.2863049503029219	0.8751873026430775	-0.07958105449799746	0.7617827878312224	0.18088941777735928	-0.6757961416856055	-0.1959719992376627	-0.44943372460931574	0.8279451943229744
-0.46743321452494474	-0.4081879562648325	0.4006460518453786	0.43574358953838377	0.022054078334729412	-0.4027454628479185	0.18088941777735928	-0.49936443760319543	0.7401511900533319	0.986180151331143	0.5926807318797532
-0.7290589139940714	-0.5580741453173961	0.05717055077122835	0.8413839400965626	-0.13039862091436089	0.5191727356064014	0.4596107810649988	-0.8522278457680157	-1.7561773147226536	-1.28687515224125	0.45824389619791256
0.49186101686185313	0.14139473692790064	-0.7442722850684556	-0.44314383667100377	0.7589087913719992	-1.3974466769696847	0.07636890654449446	0.38279408280885524	-0.8200541254316591	-1.4065096419029548	-0.617250789256813
-0.6709198696675989	-0.5247661033057153	-0.2863049503029219	0.9765973902826223	0.2507331272083649	-0.1843964158455796	-0.15009220112671268	-0.6757961416856055	-0.3519925307861618	-0.5690682142710206	0.8951636121638947
0.23023531739272646	0.07477865290453904	2.919466393055814	0.4019402269918689	1.775260119699268	0.8588268087211509	0.07636890654449446	0.20636237872644508	0.7401511900533319	3.6181389238886505	0.5590715229592931
-0.08952942640287286	-0.19168568318890733	1.6600562224505961	0.0977099640732347	0.4794121760820003	-2.0282328127542195	0.8951129112019356	-0.14650102943837517	-0.5080130623346609	1.3450836203162577	-0.012285028688529856
-0.35115512587199954	0.20801082095126222	1.2020888876850626	0.5709570397244433	0.5810473089147272	0.5191727356064014	0.4073505254485664	-0.49936443760319543	-0.66403359388316	0.7469111720077332	0.42463468727745235
0.5500000611883258	2.472957677745556	-1.3167314535253727	-1.1530144501478168	-0.5369391522452683	0.5676947460513656	-0.7597951833184242	0.5592257868912653	0.5841306585048328	-0.9279716832561353	-1.020561296302335
1.741850469881014	0.8575176401790378	1.2020888876850626	-1.7276716134385701	0.04746286154291113	-2.5134529172038618	-0.4462336496198297	1.7942477154681362	-1.2881157200771565	0.26837321336091363	-1.99522835499568
1.7999895142074867	1.1739440392900053	-0.5152886176856888	-1.051604362508272	1.6990337700747227	-1.906927786641809	-0.7946353537293791	1.7942477154681362	-0.0399514676891636	-0.5690682142710206	-1.0541705052227952
0.7534867163309799	0.24131886296294303	2.5759908919816636	-0.30793038648494414	1.5465810708256325	1.7564840019529886	-1.9966212329073247	0.7356574909736755	-0.8200541254316591	2.062890558286487	-0.48281395357497225
0.7244171941677435	0.27462690497462383	-0.057321282920155064	-0.6121606494035783	0.8605439242047261	0.3493456990490267	-1.3869182507156133	0.7356574909736755	0.4281101269563337	0.26837321336091363	-0.5164231624954324
-0.46743321452494474	-0.4081879562648325	-0.17181311661153847	-0.07130684865933981	-0.7656182011189038	0.08247464160172355	-0.272032797565055	-0.49936443760319543	1.208212784698829	0.7469111720077332	0.18937022483423116
1.1313905044530517	5.021022891639137	-0.5152886176856888	-0.8487841872291826	1.1146317562865433	-0.7181385307401859	2.689381687366115	1.2649526032209057	-1.1320951885286572	-1.4065096419029548	-1.0877797141432552
-0.9325455691367256	-0.6746522923582788	-0.9732559524512224	2.125911716864129	1.0129966234538164	0.3250846938265446	-0.23719262715410003	-0.8522278457680157	1.5202538477958274	0.14873872369920874	2.4411872225050626
0.8988343271471614	0.3745510310096662	-0.5152886176856888	-0.44314383667100377	1.5465810708256325	0.883087813943633	-0.6030144164691269	0.9120891950560855	-0.5080130623346609	-0.9279716832561353	-0.5500323714158926
-0.8744065248102529	-0.641344250346598	0.17166238446261178	0.706170489910503	-0.7910269843270855	-1.203358635189828	-0.7075349277019918	-1.0286595498504258	0.4281101269563337	0.5076421926843234	0.7943359854025143
0.5209305390250895	0.15804875793374104	0.2861542181539952	-0.34173374903145903	1.0129966234538164	-0.9850095881874891	-0.7423750981129467	0.5592257868912653	-0.8200541254316591	-0.3297992349476109	-0.5164231624954324
0.14302675090301756	-0.15837764117722652	0.9731052203022957	0.5033503146314136	1.7498513364910862	0.009691625934277233	1.4873958081881695	0.20636237872644508	-2.5362799724651492	-0.9279716832561353	-0.04589423760899003
-0.9325455691367256	-0.6746522923582788	0.6296297192281455	0.8075805775500478	-0.841844550743449	-0.2086574210680617	0.006688565722584575	-0.8522278457680157	0.2720895954078346	0.8665456616694381	0.8615544032434346
0.49186101686185313	0.14139473692790064	0.17166238446261178	-0.713570737043123	0.22532434400018314	0.6162167564963298	-0.09783194551028025	0.5592257868912653	-0.5080130623346609	-0.21016474528590595	-0.8189060427795739
0.14302675090301756	-0.05845351514218414	-0.6297804513770722	-0.5445539243105485	-0.1558074041225426	0.8103047982761866	-0.18493237153766762	0.20636237872644508	1.208212784698829	0.26837321336091363	-0.2811587000522112
2.3813799574722125	5.803761878913636	-1.5457151209081395	-1.9304917887176596	0.35236826004109173	0.37360670427150877	0.26798984380474666	2.499974531797777	0.896171721601831	-0.9279716832561353	-1.7263546836319985
0.34651340604567166	-0.07510753614802454	0.4006460518453786	0.0639066015267198	1.419537154784724	-1.0577926038549352	-1.264977654277271	0.38279408280885524	0.2720895954078346	0.6272766823460283	0.12215180699331082
-0.8162674804837804	-0.6080362083349172	-0.5152886176856888	1.1456142030151968	0.04746286154291113	0.8103047982761866	0.5467112070923862	-0.6757961416856055	-0.0399514676891636	-0.5690682142710206	1.130428074607116
0.6372086276780347	3.7553172951952667	-0.057321282920155064	-0.47694719921751866	0.962179057037453	-0.5725724994052932	0.4073505254485664	0.7356574909736755	0.1160690638593355	0.02910423403750383	-0.4492047446545121
-0.9325455691367256	-0.6746522923582788	0.4006460518453786	0.706170489910503	-0.9688884667843576	-0.6210945098502575	0.25056975859926917	-1.0286595498504258	-0.3519925307861618	0.14873872369920874	0.6262899408002134
0.6372086276780347	0.22466484195710262	0.4006460518453786	-1.1530144501478168	-0.38448645299617806	-0.1843964158455796	0.16346933257188181	0.7356574909736755	-1.2881157200771565	-0.5690682142710206	-1.423871803347857
-0.9906846134631981	-0.7079603343699596	0.515137885536762	0.5709570397244433	-1.3500202149070832	1.2227418870583824	0.21572958818831423	-1.0286595498504258	-0.3519925307861618	0.26837321336091363	0.4918531051183727
-0.8162674804837804	-0.6080362083349172	0.2861542181539952	0.4019402269918689	-1.0451148164089028	-0.5968335046277754	-0.30687296797600994	-0.8522278457680157	-0.3519925307861618	0.02910423403750383	0.32380706051607183
-0.8453370026470166	-0.6246902293407577	-0.057321282920155064	0.5371536771779285	-0.9434796835761758	-0.11161340017813329	1.9403180235305837	-0.8522278457680157	-1.6001567831741546	-1.28687515224125	0.18937022483423116
-0.7290589139940714	-0.5580741453173961	0.05717055077122835	0.5371536771779285	-0.5877567186616318	0.9073488191661151	0.49445095147595375	-0.8522278457680157	1.05219225315033	0.8665456616694381	0.7607267764820541
-1.2813798350955612	-0.8578465234225232	3.720909228895498	1.6864680037594353	-1.019706033200721	-2.464930906758897	0.8428526555855032	-1.205091253932836	-0.66403359388316	3.378869944565241	1.533738581652638
-0.8162674804837804	-0.6080362083349172	0.17166238446261178	0.7399738524570179	-0.5369391522452683	0.009691625934277233	-0.23719262715410003	-0.8522278457680157	1.05219225315033	0.986180151331143	0.9623820300048151
-0.7871979583205441	-0.5913821873290769	-1.087747786142606	1.0104007528291372	-0.05417227128981574	-0.06309138973316908	0.09378899174997193	-0.8522278457680157	1.6762743793443264	0.14873872369920874	1.3656925370503372
-0.7581284361573077	-0.5747281663232364	0.2861542181539952	0.19912005171277944	-1.1721587324498113	0.03395263115675934	0.4073505254485664	-0.8522278457680157	-1.4441362516256555	-0.8083371935944305	-0.11311265544991037
0.6953476720045072	0.25797288396878343	-0.17181311661153847	-0.8149808246826677	0.40318582645745515	0.37360670427150877	-0.2023524567431451	0.7356574909736755	0.896171721601831	0.5076421926843234	-0.617250789256813
-0.8162674804837804	-0.6080362083349172	-0.057321282920155064	-0.07130684865933981	-1.7311519630298091	-0.32996244718047224	-0.4984939052362621	-0.6757961416856055	1.05219225315033	0.7469111720077332	0.155761015913771
-0.7871979583205441	-0.5913821873290769	-0.7442722850684556	0.9089906651895925	-0.20662497053890605	-0.35422345240295433	0.041528736133539516	-0.8522278457680157	0.5841306585048328	-0.3297992349476109	1.0296004478457355
-0.6418503475043625	-0.5081120822998749	0.2861542181539952	0.23292341425929433	-0.7910269843270855	1.0286538452785257	0.3725103550376115	-0.49936443760319543	0.7401511900533319	0.8665456616694381	0.3910254783569922
-0.7581284361573077	-0.5747281663232364	-1.2022396198339893	1.078007477922167	0.12368921116745628	-0.6696165202952217	-0.04557168989384784	-0.8522278457680157	-0.3519925307861618	-1.5261441315646598	0.9959912389252753
-0.7581284361573077	-0.5747281663232364	0.4006460518453786	-0.17271693629888452	-1.7057431798216274	0.8345658034986687	0.024108650928062046	-0.8522278457680157	-1.4441362516256555	-0.6887027039327256	-0.48281395357497225
-0.7871979583205441	-0.5913821873290769	0.4006460518453786	0.5371536771779285	-0.7656182011189038	0.9801318348335614	0.4596107810649988	-0.6757961416856055	-0.3519925307861618	0.14873872369920874	0.45824389619791256
-0.7290589139940714	-0.5580741453173961	0.05717055077122835	0.5709570397244433	-0.5369391522452683	-0.6210945098502575	0.09378899174997193	-0.6757961416856055	-0.1959719992376627	-0.09053025562420107	0.5254623140388329
-0.8453370026470166	-0.6246902293407577	-0.858764118759839	1.2808276532012564	0.149097994375638	-0.47552847851536484	-0.028151604688370368	-0.8522278457680157	-0.8200541254316591	-1.5261441315646598	1.0968188656866558
-1.0197541356264344	-0.7246143553758001	-0.6297804513770722	1.5512545535733757	-0.13039862091436089	-0.11161340017813329	-0.09783194551028025	-1.0286595498504258	0.2720895954078346	-0.44943372460931574	1.6009569994935584
-0.8453370026470166	-0.6246902293407577	-0.40079678399430535	0.13151332661974963	-1.5024729141561737	-0.8637045620750785	-0.4462336496198297	-0.8522278457680157	-0.8200541254316591	-1.0476061729178403	-0.04589423760899003
-0.8744065248102529	-0.641344250346598	-0.17181311661153847	0.8075805775500478	-0.6385742850779953	-0.7909215464076322	0.32025009942117905	-0.8522278457680157	0.7401511900533319	0.3880077030226185	0.9623820300048151
-0.8453370026470166	-0.6246902293407577	-0.2863049503029219	0.6047604022709583	-0.841844550743449	-0.11161340017813329	0.8080124851745483	-0.8522278457680157	1.3642333162473284	0.7469111720077332	0.8951636121638947
-0.8453370026470166	-0.6246902293407577	-0.858764118759839	0.9765973902826223	-0.3082601033716329	0.7375217826087404	0.024108650928062046	-0.8522278457680157	0.896171721601831	-0.21016474528590595	1.164037283527576
-0.14766847072934547	-0.04179949413634374	-0.17181311661153847	-0.4093404741244889	-0.5623479354534501	-0.5968335046277754	-0.46365373482530714	-0.14650102943837517	1.05219225315033	0.6272766823460283	-0.1803310732908307
0.8116257606574524	0.32458896799214504	-0.5152886176856888	-1.0854077250547869	0.04746286154291113	1.125697866168454	0.5292911218869087	0.9120891950560855	0.2720895954078346	-0.3297992349476109	-1.020561296302335
0.579069583351562	0.19135679994542182	-1.2022396198339893	-0.9839976374152423	-0.1558074041225426	-0.01456937928820487	0.16346933257188181	0.5592257868912653	1.208212784698829	-0.3297992349476109	-0.7180784160181934
-0.9906846134631981	-0.7079603343699596	2.11802355721613	1.111810840468682	-0.6131655018698136	-1.0820536090774173	-0.46365373482530714	-1.0286595498504258	-1.7561773147226536	0.8665456616694381	0.727117567561594
1.0441819379633428	-0.025145473130503342	0.9731052203022957	-0.6459640119500932	1.3941283715765422	-0.2086574210680617	-1.4391785063320457	1.0885208991384958	-1.2881157200771565	0.02910423403750383	-0.9197336695409545
-0.8162674804837804	-0.6080362083349172	-0.17181311661153847	0.46954695208489866	-0.9434796835761758	0.6404777617188119	-0.15009220112671268	-0.8522278457680157	-0.1959719992376627	-0.3297992349476109	0.42463468727745235
-0.060459904239636555	-0.17503166218306693	-0.40079678399430535	-0.27412702393842925	-0.13039862091436089	1.1984808818359003	0.024108650928062046	-0.14650102943837517	1.208212784698829	0.5076421926843234	-0.012285028688529856
-0.7871979583205441	-0.5913821873290769	0.4006460518453786	-0.07130684865933981	-1.654925613405264	-0.08735239495565118	-0.4462336496198297	-0.8522278457680157	-0.66403359388316	-0.09053025562420107	-0.21394028221129088
0.23023531739272646	-0.008491452124662945	0.05717055077122835	-0.8825875497756975	-0.6131655018698136	-1.3004026560797564	-0.010731519482892896	0.20636237872644508	-1.2881157200771565	-0.9279716832561353	-1.1549981319841756
-0.7290589139940714	-0.5580741453173961	-0.057321282920155064	1.2132209281082267	0.4285946096656369	-0.9607485829650069	0.07636890654449446	-0.6757961416856055	-0.0399514676891636	-0.09053025562420107	1.1976464924480363
0.7825562384942162	0.30793494698630464	-0.7442722850684556	-0.6121606494035783	0.9875878402456346	0.422128714716473	-0.3591332235924423	0.7356574909736755	0.5841306585048328	-0.3297992349476109	-0.48281395357497225
-0.9034760469734893	-0.6579982713524385	-0.858764118759839	0.9765973902826223	-0.5115303690370867	-0.6938775255177038	0.26798984380474666	-0.8522278457680157	0.4281101269563337	-0.5690682142710206	1.0632096567661957
-0.20580751505581807	-0.25830176721226894	0.8586133866109122	0.46954695208489866	0.8097263577883627	-0.1601354106230975	-0.3591332235924423	-0.3229327335207853	-0.5080130623346609	0.5076421926843234	0.35741626943653204
0.5500000611883258	0.17470277893958144	0.4006460518453786	-0.0037001235663100037	1.7498513364910862	0.03395263115675934	-0.09783194551028025	0.5592257868912653	-0.9760746569801582	-0.3297992349476109	-0.21394028221129088
-0.8744065248102529	-0.641344250346598	0.4006460518453786	2.463945342329278	1.7244425532829044	0.08247464160172355	-0.3242930531814874	-0.8522278457680157	-0.66403359388316	-0.09053025562420107	2.306750386823222
-0.7581284361573077	-0.5747281663232364	0.6296297192281455	0.4019402269918689	-0.8672533339516307	-0.9122265725200427	0.33767018462665654	-0.8522278457680157	-0.1959719992376627	0.5076421926843234	0.35741626943653204
1.9453371250236682	1.290522186330888	-0.40079678399430535	-1.457244713066451	0.962179057037453	-1.2761416508572743	2.2887197276401334	1.9706794195505464	-1.4441362516256555	-1.5261441315646598	-1.7599638925524588
0.08488770657654494	0.20801082095126222	-0.17181311661153847	0.43574358953838377	1.495763504409269	0.009691625934277233	-1.0036763761951089	0.02993067464403496	-0.1959719992376627	-0.3297992349476109	0.3910254783569922
2.8755618342472298	1.0074038292316014	-0.40079678399430535	-2.133311963996749	0.40318582645745515	-1.2518806456347922	1.8183774270922415	2.852837939962597	-0.9760746569801582	-1.167240662579545	-2.3313204442002817
-0.40929417019847214	-0.3748799142531517	0.17166238446261178	0.19912005171277944	-0.18121618733072434	0.05821363637924144	-0.010731519482892896	-0.49936443760319543	1.05219225315033	0.986180151331143	0.42463468727745235
0.6953476720045072	0.25797288396878343	-1.087747786142606	-1.051604362508272	-0.07958105449799746	-0.45126747329288275	0.25056975859926917	0.7356574909736755	0.2720895954078346	-0.9279716832561353	-0.9869520873818748
1.8290590363707229	0.7242854721323145	0.8586133866109122	-1.6262615257990254	0.40318582645745515	0.8588268087211509	0.12862916216092687	1.7942477154681362	-0.5080130623346609	0.5076421926843234	-1.7263546836319985
-0.58371130317789	-0.47480404028819406	4.751335732117949	1.111810840468682	0.7589087913719992	1.6351789758405781	-0.16751228633219015	-0.49936443760319543	0.7401511900533319	5.532290758475929	1.2648649102889566
-0.8453370026470166	-0.6246902293407577	-0.5152886176856888	0.5033503146314136	-0.9688884667843576	-0.6453555150727396	-0.533334075647217	-0.8522278457680157	-0.0399514676891636	-0.5690682142710206	0.4918531051183727
0.40465245037214426	0.09143267391037944	-0.7442722850684556	-0.713570737043123	0.04746286154291113	-0.45126747329288275	-0.23719262715410003	0.38279408280885524	-0.8200541254316591	-1.4065096419029548	-0.8861244606204943
0.8116257606574524	0.32458896799214504	0.05717055077122835	-0.713570737043123	0.8097263577883627	-0.2329184262905438	-0.08041186030480278	0.9120891950560855	-0.1959719992376627	-0.09053025562420107	-0.7516876249386536
-0.14766847072934547	-0.2249937252005881	-0.6297804513770722	-0.5107505617640336	-0.7402094179107221	-0.9122265725200427	-0.3765533087979198	-0.14650102943837517	1.05219225315033	0.14873872369920874	-0.2811587000522112
-0.35115512587199954	-0.3415718722414709	-0.7442722850684556	0.6385637648174732	0.7080912249556358	0.4463897199389551	-0.3417131383869649	-0.3229327335207853	-0.0399514676891636	-0.8083371935944305	0.6262899408002134
-0.49650273668818107	-0.4248419772706729	-0.2863049503029219	0.7399738524570179	0.45400339287381863	-0.2329184262905438	-0.04557168989384784	-0.49936443760319543	0.7401511900533319	0.26837321336091363	0.8951636121638947
0.5500000611883258	0.17470277893958144	-0.858764118759839	-1.051604362508272	-0.33366888657981464	-0.47552847851536484	-0.2023524567431451	0.5592257868912653	0.7401511900533319	-0.3297992349476109	-0.8861244606204943
1.7127809477177778	1.1739440392900053	-0.40079678399430535	-1.3220312628803912	0.962179057037453	0.883087813943633	-1.6830596992087303	1.7942477154681362	1.3642333162473284	0.6272766823460283	-1.020561296302335
-0.46743321452494474	5.387411353767626	-0.17181311661153847	0.43574358953838377	0.022054078334729412	0.4949117303839193	-0.30687296797600994	-0.49936443760319543	-0.1959719992376627	-0.3297992349476109	0.3910254783569922
0.6081391055147983	0.20801082095126222	-0.2863049503029219	-1.3220312628803912	-0.7656182011189038	0.27656268338158035	0.041528736133539516	0.7356574909736755	0.1160690638593355	-0.21016474528590595	-1.2894349676660164
0.7825562384942162	0.30793494698630464	-1.3167314535253727	-0.8149808246826677	0.5556385257065455	0.883087813943633	0.5118710366814313	0.7356574909736755	0.4281101269563337	-1.0476061729178403	-0.7180784160181934
-0.6127808253411262	-0.49145806129403447	0.2861542181539952	-0.20652029884539944	-1.375428998115265	-0.7181385307401859	-0.7946353537293791	-0.6757961416856055	-1.1320951885286572	-0.5690682142710206	-0.4492047446545121
-0.7290589139940714	-0.5580741453173961	-0.40079678399430535	0.7737772150035328	-0.23203375374708776	0.6162167564963298	-0.028151604688370368	-0.8522278457680157	0.2720895954078346	-0.21016474528590595	0.8279451943229744
-0.7290589139940714	-0.5580741453173961	0.9731052203022957	0.4019402269918689	-0.7910269843270855	-0.13587440540061538	-0.2546127123595775	-0.6757961416856055	-0.66403359388316	0.5076421926843234	0.2565886426751515
-1.0197541356264344	-0.7246143553758001	1.8890398898333631	1.0104007528291372	-0.841844550743449	-1.5672737135270596	-1.0210964614005862	-1.0286595498504258	-1.9121978462711526	0.5076421926843234	0.5926807318797532
0.8116257606574524	0.3412429889979854	-0.5152886176856888	-0.6797673744966081	0.8859527074129078	0.009691625934277233	-0.48107382003078464	0.9120891950560855	-0.3519925307861618	-0.8083371935944305	-0.7516876249386536
-0.6127808253411262	-0.49145806129403447	-0.057321282920155064	0.0639066015267198	-0.9434796835761758	1.0771758557234898	0.21572958818831423	-0.6757961416856055	-0.0399514676891636	-0.09053025562420107	0.05493338915239049
-0.7871979583205441	-0.5913821873290769	-1.087747786142606	0.6723671273639881	-0.5623479354534501	-0.038830384510686974	0.07636890654449446	-0.8522278457680157	-0.8200541254316591	-1.7654131108880695	0.4918531051183727
0.49186101686185313	2.8560001608798853	-0.2863049503029219	-0.47694719921751866	0.6826824417474541	-1.8098837657518805	-0.9862562909896313	0.5592257868912653	1.05219225315033	0.5076421926843234	-0.24754949113175106
-0.7290589139940714	-0.5580741453173961	0.9731052203022957	0.6047604022709583	-0.4861215858289049	-0.5968335046277754	0.18088941777735928	-0.6757961416856055	-1.7561773147226536	-0.3297992349476109	0.22297943375469134
-0.8744065248102529	-0.9577706494575656	0.515137885536762	0.706170489910503	-0.7910269843270855	-0.4027454628479185	-1.264977654277271	-0.8522278457680157	-0.0399514676891636	0.5076421926843234	0.6935083586411337
1.1023209822898155	0.491129178050549	-0.057321282920155064	-2.2347220516362936	-1.909013445487081	1.3683079183932751	0.14604924736640434	1.0885208991384958	-1.1320951885286572	-0.9279716832561353	-2.4657572798821223
0.08488770657654494	-0.09176155715386493	0.2861542181539952	-0.5445539243105485	-0.2828513201634512	0.4463897199389551	-0.15009220112671268	0.02993067464403496	-1.1320951885286572	-0.5690682142710206	-0.7852968338591138
-0.7290589139940714	-0.5580741453173961	0.515137885536762	0.8751873026430775	-0.07958105449799746	0.8345658034986687	-0.21977254194862256	-0.8522278457680157	0.4281101269563337	0.8665456616694381	0.9623820300048151
-0.7581284361573077	-0.5747281663232364	-0.5152886176856888	0.43574358953838377	-0.8164357675352673	0.22804067293661617	0.3899304402430889	-0.6757961416856055	-0.1959719992376627	-0.6887027039327256	0.3910254783569922
1.160460026616288	0.5244372200622298	-0.7442722850684556	-0.6459640119500932	1.597398637241996	0.5676947460513656	0.5815513775033412	1.0885208991384958	-0.0399514676891636	-0.8083371935944305	-0.6508599981772731
-0.9034760469734893	-0.6579982713524385	0.4006460518453786	1.044204115375652	-0.4098952362043598	0.22804067293661617	-0.16751228633219015	-1.0286595498504258	-0.3519925307861618	0.14873872369920874	0.9623820300048151
-0.20580751505581807	4.121705757323755	-0.40079678399430535	0.36813686444535393	0.6318648753310906	0.3008236886040625	-0.11525203071575772	-0.14650102943837517	-0.5080130623346609	-0.8083371935944305	0.2565886426751515
0.14302675090301756	-0.05845351514218414	-0.9732559524512224	-0.30793038648494414	0.27614191041654657	0.22804067293661617	0.5467112070923862	0.20636237872644508	0.7401511900533319	-0.44943372460931574	-0.14672186437037055
-0.32208560370876327	-0.3748799142531517	0.9731052203022957	0.4019402269918689	0.37777704324927347	-2.173798844089112	-0.06299177509932531	-0.49936443760319543	-1.4441362516256555	-0.09053025562420107	0.08854259807285066
-0.6709198696675989	-0.641344250346598	-0.7442722850684556	0.5033503146314136	-0.4607128026207232	-0.76666054118515	-0.09783194551028025	-0.6757961416856055	0.5841306585048328	-0.3297992349476109	0.6262899408002134
-0.40929417019847214	-0.3748799142531517	0.515137885536762	-0.03750348611282491	-0.5623479354534501	1.0286538452785257	0.42477061065404387	-0.49936443760319543	0.4281101269563337	0.8665456616694381	0.05493338915239049
0.579069583351562	0.19135679994542182	-0.5152886176856888	-0.6121606494035783	0.5810473089147272	-2.3193648754240046	0.14604924736640434	0.5592257868912653	-0.66403359388316	-1.0476061729178403	-0.7516876249386536
-0.6127808253411262	-0.49145806129403447	-0.17181311661153847	0.30053013935232414	-0.5877567186616318	-1.6400567291945058	0.07636890654449446	-0.49936443760319543	1.208212784698829	0.7469111720077332	0.5590715229592931
0.11395722873978124	-0.07510753614802454	-0.7442722850684556	-0.27412702393842925	0.27614191041654657	-1.6157957239720238	-0.568174246058172	0.20636237872644508	-0.0399514676891636	-0.8083371935944305	-0.2811587000522112
-0.7290589139940714	-0.5580741453173961	-0.17181311661153847	0.0977099640732347	-1.2229762988661748	-0.3057014419579901	3.351344925174259	-0.6757961416856055	-0.5080130623346609	-0.5690682142710206	-0.012285028688529856
-0.26394655938229067	3.655393169160224	-0.17181311661153847	0.6723671273639881	0.9875878402456346	1.0286538452785257	0.7731723147635933	-0.3229327335207853	-0.1959719992376627	-0.3297992349476109	0.6262899408002134
-0.8162674804837804	-0.6080362083349172	-0.2863049503029219	0.8413839400965626	-0.4098952362043598	-0.2329184262905438	-0.39397339400339726	-0.6757961416856055	-0.1959719992376627	-0.44943372460931574	0.7943359854025143
-0.7871979583205441	-0.5913821873290769	0.8586133866109122	0.8751873026430775	-0.2574425369552695	-0.5725724994052932	0.12862916216092687	-0.6757961416856055	-2.2242389093681507	-0.8083371935944305	0.3910254783569922
0.49186101686185313	0.19135679994542182	0.17166238446261178	-0.30793038648494414	1.0129966234538164	-1.3246636613022384	-0.08041186030480278	0.5592257868912653	-0.66403359388316	-0.3297992349476109	-0.4492047446545121
-0.8162674804837804	4.404824114423042	2.0035317235247465	2.9371924179804867	2.6391587487774464	1.101436860945972	-1.299817824688226	-0.8522278457680157	-1.1320951885286572	1.2254491306545527	2.676451684948284
-0.7290589139940714	-0.5580741453173961	-0.858764118759839	0.6723671273639881	-0.38448645299617806	-0.9122265725200427	-0.08041186030480278	-0.8522278457680157	1.208212784698829	0.02910423403750383	0.9287728210843549
-0.7581284361573077	-0.5747281663232364	0.17166238446261178	0.7737772150035328	-0.3082601033716329	-1.1063146142998996	0.024108650928062046	-0.8522278457680157	-0.8200541254316591	-0.44943372460931574	0.5926807318797532
0.5209305390250895	0.15804875793374104	-1.3167314535253727	-0.6121606494035783	0.4794121760820003	0.422128714716473	-0.09783194551028025	0.5592257868912653	0.5841306585048328	-0.9279716832561353	-0.48281395357497225
0.869764804983925	0.3578970100038258	-0.2863049503029219	-0.9163909123222125	0.504820959290182	0.3978677094939909	-0.4462336496198297	0.9120891950560855	-0.3519925307861618	-0.5690682142710206	-0.9869520873818748
-0.6999893918308352	-0.5414201243115557	-0.057321282920155064	0.8413839400965626	-0.003354704873452306	0.20377966771413406	0.3028300142157016	-0.6757961416856055	1.3642333162473284	0.986180151331143	1.130428074607116
-0.7581284361573077	-0.5747281663232364	0.8586133866109122	0.36813686444535393	-0.9180709003679941	0.6889997721637762	0.355090269832134	-0.6757961416856055	-0.0399514676891636	0.8665456616694381	0.35741626943653204
-0.7581284361573077	-0.5747281663232364	-0.6297804513770722	0.46954695208489866	-0.7656182011189038	-0.281440436735508	0.05894882133901699	-0.6757961416856055	0.1160690638593355	-0.5690682142710206	0.4918531051183727
-0.7581284361573077	-0.5747281663232364	-0.057321282920155064	0.9427940277361073	-0.07958105449799746	-0.1601354106230975	-0.46365373482530714	-0.8522278457680157	-0.1959719992376627	-0.21016474528590595	0.8951636121638947
-0.8162674804837804	-0.6080362083349172	-0.2863049503029219	0.23292341425929433	-1.2737938652825382	-0.32996244718047224	-0.3765533087979198	-0.8522278457680157	1.208212784698829	0.6272766823460283	0.4918531051183727
-0.7581284361573077	-0.5747281663232364	-0.2863049503029219	0.6385637648174732	-0.5115303690370867	0.9073488191661151	0.25056975859926917	-0.6757961416856055	-0.1959719992376627	-0.44943372460931574	0.5926807318797532
-0.8744065248102529	-0.641344250346598	-0.9732559524512224	0.5033503146314136	-1.0705235996170845	-0.06309138973316908	0.12862916216092687	-1.0286595498504258	-0.0399514676891636	-1.0476061729178403	0.4918531051183727
-0.9325455691367256	-0.6746522923582788	1.0875970539936792	1.3146310157477712	-0.13039862091436089	0.3250846938265446	-0.06299177509932531	-0.8522278457680157	-0.9760746569801582	0.3880077030226185	1.0968188656866558
-0.7290589139940714	-0.5580741453173961	-0.057321282920155064	0.23292341425929433	-1.019706033200721	0.7375217826087404	0.32025009942117905	-0.6757961416856055	-0.9760746569801582	-0.8083371935944305	0.021324180231930313
-0.7290589139940714	-0.5580741453173961	0.515137885536762	0.36813686444535393	-0.841844550743449	1.0529148505010077	0.4596107810649988	-0.6757961416856055	-0.5080130623346609	0.14873872369920874	0.2565886426751515
-0.8453370026470166	-0.6246902293407577	-0.5152886176856888	0.7737772150035328	-0.5877567186616318	-0.45126747329288275	-0.7423750981129467	-0.8522278457680157	-0.3519925307861618	-0.8083371935944305	0.6935083586411337
1.3930162039221785	0.6410153671031126	-0.17181311661153847	-1.761474975985085	-0.5115303690370867	-1.7371007500844342	0.3899304402430889	1.441384307303316	0.896171721601831	0.5076421926843234	-1.5583086390296976
0.17209627306625386	-0.20833970419474773	-0.7442722850684556	-0.13891357375236962	0.6318648753310906	0.08247464160172355	1.4873958081881695	0.20636237872644508	1.6762743793443264	0.5076421926843234	0.22297943375469134
-0.14766847072934547	-0.2249937252005881	-0.5152886176856888	-0.44314383667100377	-0.6131655018698136	0.7132607773862583	-0.2023524567431451	-0.14650102943837517	0.1160690638593355	-0.44943372460931574	-0.4155955357340519
1.7709199920442504	0.8741716611848781	-2.23266612305644	-0.8149808246826677	2.207209434238357	0.22804067293661617	-0.3591332235924423	1.7942477154681362	1.05219225315033	-1.5261441315646598	-0.5836415803363527
-0.7581284361573077	-0.5747281663232364	-0.5152886176856888	0.8751873026430775	-0.1558074041225426	-1.0577926038549352	-0.5507541608526945	-0.6757961416856055	0.2720895954078346	-0.3297992349476109	0.9287728210843549
-0.7290589139940714	-0.5580741453173961	-0.5152886176856888	0.7737772150035328	-0.23203375374708776	-0.9364875777425248	0.05894882133901699	-0.6757961416856055	-0.66403359388316	-1.0476061729178403	0.6262899408002134
0.5209305390250895	0.15804875793374104	-0.5152886176856888	-0.30793038648494414	1.0892229730783616	-0.6210945098502575	-0.5855943312636495	0.38279408280885524	-1.2881157200771565	-1.5261441315646598	-0.5836415803363527
-0.17673799289258177	-0.2416477462064285	0.515137885536762	-0.47694719921751866	-0.7402094179107221	0.8345658034986687	0.33767018462665654	-0.14650102943837517	-0.5080130623346609	0.14873872369920874	-0.5836415803363527
0.6081391055147983	0.20801082095126222	-0.17181311661153847	-0.9163909123222125	0.04746286154291113	-2.3436258806464867	0.32025009942117905	0.7356574909736755	1.208212784698829	0.7469111720077332	-0.6508599981772731
-0.8162674804837804	-0.6080362083349172	-0.7442722850684556	0.36813686444535393	-1.095932382825266	0.5919557512738477	0.14604924736640434	-0.8522278457680157	-0.3519925307861618	-1.0476061729178403	0.2901978515956117
-0.8162674804837804	-0.6080362083349172	0.8586133866109122	-0.07130684865933981	-1.7311519630298091	-0.35422345240295433	0.26798984380474666	-0.6757961416856055	-0.1959719992376627	0.7469111720077332	-0.11311265544991037
-0.23487703721905437	-0.2749557882181093	0.17166238446261178	0.0301032389802049	-0.003354704873452306	0.6889997721637762	0.2331496733937917	-0.14650102943837517	0.5841306585048328	0.6272766823460283	0.155761015913771
-0.8744065248102529	-0.641344250346598	0.2861542181539952	0.7399738524570179	-0.7402094179107221	0.3493456990490267	-0.08041186030480278	-0.8522278457680157	0.7401511900533319	0.8665456616694381	0.8951636121638947
-1.0488236577896708	-0.7412683763816404	-1.3167314535253727	1.044204115375652	-0.9180709003679941	-0.6453555150727396	0.21572958818831423	-1.0286595498504258	0.4281101269563337	-1.0476061729178403	1.130428074607116
0.7244171941677435	0.27462690497462383	0.17166238446261178	-1.2882279003338764	-0.5115303690370867	-0.35422345240295433	1.0344735928457554	0.7356574909736755	-1.4441362516256555	-0.9279716832561353	-1.591917847950158
-0.7581284361573077	-0.5747281663232364	0.8586133866109122	0.6385637648174732	-0.5115303690370867	0.03395263115675934	-0.15009220112671268	-0.8522278457680157	-0.0399514676891636	0.8665456616694381	0.6262899408002134
-0.23487703721905437	-0.2749557882181093	-0.17181311661153847	0.19912005171277944	0.27614191041654657	0.3008236886040625	0.14604924736640434	-0.3229327335207853	-0.3519925307861618	-0.44943372460931574	0.12215180699331082
-1.0197541356264344	-0.7246143553758001	0.515137885536762	0.36813686444535393	-1.7311519630298091	0.7617827878312224	0.3028300142157016	-1.0286595498504258	0.4281101269563337	0.8665456616694381	0.45824389619791256
-0.5546417810146537	-0.4581500192823537	0.05717055077122835	0.4019402269918689	-0.2574425369552695	0.6647387669412941	0.041528736133539516	-0.49936443760319543	-1.1320951885286572	-0.8083371935944305	0.155761015913771
-0.58371130317789	-0.47480404028819406	-0.9732559524512224	1.111810840468682	0.7589087913719992	0.4706507251614372	0.2854099290102241	-0.49936443760319543	0.1160690638593355	-0.9279716832561353	1.130428074607116
-1.0197541356264344	-0.7246143553758001	-0.17181311661153847	4.525950457666688	3.909597909186532	0.03395263115675934	-0.272032797565055	-1.0286595498504258	-0.66403359388316	-0.6887027039327256	4.356912130971292
-0.9034760469734893	-0.6579982713524385	0.9731052203022957	0.706170489910503	-0.8926621171598124	0.27656268338158035	-0.41139347920887476	-0.8522278457680157	-0.8200541254316591	0.3880077030226185	0.5254623140388329
-0.17673799289258177	-0.7579223973874809	-0.2863049503029219	-0.375537111577974	-0.5623479354534501	0.7860437930537045	-1.8921007216744599	-0.14650102943837517	1.3642333162473284	0.7469111720077332	-0.0795034465294502
0.8406952828206887	0.3412429889979854	-0.858764118759839	-1.1868178126943316	-0.10498983770617917	0.3008236886040625	0.07636890654449446	0.9120891950560855	0.896171721601831	-0.21016474528590595	-0.9869520873818748
-0.6127808253411262	-0.49145806129403447	0.4006460518453786	-0.34173374903145903	-1.5786992637807187	1.1984808818359003	0.5292911218869087	-0.49936443760319543	-0.0399514676891636	0.3880077030226185	-0.3483771178931316
-0.6127808253411262	-0.49145806129403447	-0.9732559524512224	1.0104007528291372	0.504820959290182	-1.6400567291945058	-0.6030144164691269	-0.49936443760319543	1.3642333162473284	0.02910423403750383	1.298474119209417
-0.8162674804837804	-0.6080362083349172	-0.17181311661153847	0.5709570397244433	-0.7910269843270855	0.5676947460513656	-0.4462336496198297	-0.8522278457680157	-0.3519925307861618	-0.44943372460931574	0.4918531051183727
-0.8162674804837804	-0.6080362083349172	-0.2863049503029219	0.9089906651895925	-0.3082601033716329	0.4706507251614372	0.07636890654449446	-0.8522278457680157	-0.8200541254316591	-0.9279716832561353	0.727117567561594
0.6081391055147983	0.20801082095126222	-0.40079678399430535	-1.2206211752408467	-0.5623479354534501	-0.4027454628479185	0.3028300142157016	0.5592257868912653	-0.1959719992376627	-0.5690682142710206	-1.2558257587455561
-0.20580751505581807	3.255696665020055	1.316580721376446	0.19912005171277944	0.35236826004109173	0.5919557512738477	2.65454151695516	-0.3229327335207853	-0.8200541254316591	0.7469111720077332	0.021324180231930313
0.34651340604567166	0.058124631898698646	-0.057321282920155064	-0.713570737043123	-0.05417227128981574	-0.6453555150727396	0.18088941777735928	0.38279408280885524	-1.1320951885286572	-0.9279716832561353	-0.9533428784614146
-0.46743321452494474	-0.4081879562648325	-0.17181311661153847	0.9765973902826223	0.8859527074129078	0.15525765726916985	0.3725103550376115	-0.49936443760319543	-0.3519925307861618	-0.44943372460931574	0.8951636121638947
-0.7581284361573077	-0.5747281663232364	2.347007224598897	0.6723671273639881	-0.4607128026207232	-1.3974466769696847	-1.0733567170170186	-0.8522278457680157	-0.1959719992376627	2.3021595376098967	0.6262899408002134
-0.8453370026470166	-0.6246902293407577	-0.17181311661153847	0.8751873026430775	-0.4353040194125415	0.25230167815909826	-0.533334075647217	-0.8522278457680157	1.05219225315033	0.6272766823460283	1.0968188656866558
-0.7581284361573077	-0.5747281663232364	0.17166238446261178	0.5033503146314136	-0.7148006347025404	0.7617827878312224	0.2331496733937917	-0.8522278457680157	-0.66403359388316	-0.3297992349476109	0.35741626943653204
-0.7871979583205441	-0.5913821873290769	-0.5152886176856888	0.0977099640732347	-1.4008377813234467	0.6404777617188119	0.355090269832134	-0.8522278457680157	0.1160690638593355	-0.44943372460931574	0.12215180699331082
-0.8453370026470166	-0.6246902293407577	0.4006460518453786	0.23292341425929433	-1.375428998115265	0.5434337408288835	0.14604924736640434	-0.8522278457680157	-0.66403359388316	-0.09053025562420107	0.08854259807285066
0.49186101686185313	0.14139473692790064	-0.2863049503029219	-0.375537111577974	0.8859527074129078	0.5434337408288835	0.041528736133539516	0.38279408280885524	0.4281101269563337	0.02910423403750383	-0.2811587000522112
0.49186101686185313	0.14139473692790064	0.515137885536762	-0.9163909123222125	-0.18121618733072434	0.9073488191661151	0.25056975859926917	0.5592257868912653	-0.0399514676891636	0.5076421926843234	-0.9197336695409545
-0.7581284361573077	-0.5747281663232364	-0.057321282920155064	0.0301032389802049	-1.4262465645316285	-0.038830384510686974	0.07636890654449446	-0.8522278457680157	-0.3519925307861618	-0.3297992349476109	-0.04589423760899003
0.055818184413308644	-0.10841557815970533	-0.7442722850684556	-0.5107505617640336	-0.2828513201634512	-0.524050488960329	0.09378899174997193	0.20636237872644508	0.896171721601831	-0.09053025562420107	-0.3147679089726714
0.46279149469861686	0.6077073250914318	0.17166238446261178	0.19912005171277944	1.927712818948358	-0.5968335046277754	-0.5855943312636495	0.38279408280885524	0.1160690638593355	0.26837321336091363	0.22297943375469134
-0.9034760469734893	-0.6579982713524385	-1.2022396198339893	0.7399738524570179	-0.841844550743449	-1.1063146142998996	-0.9165759501677214	-0.8522278457680157	1.5202538477958274	-0.09053025562420107	1.0632096567661957
-0.8162674804837804	-0.6080362083349172	-0.2863049503029219	1.2132209281082267	0.149097994375638	-0.9364875777425248	-0.7075349277019918	-0.8522278457680157	1.3642333162473284	0.7469111720077332	1.5001293727321778
-0.17673799289258177	-0.2416477462064285	-0.40079678399430535	0.0639066015267198	0.19991556079200143	-0.742399535962668	-0.7423750981129467	-0.14650102943837517	1.3642333162473284	0.6272766823460283	0.35741626943653204
-0.9906846134631981	-0.7079603343699596	-0.5152886176856888	0.9089906651895925	-0.8926621171598124	-1.1305756195223817	-1.0559366318115413	-1.0286595498504258	0.896171721601831	0.14873872369920874	1.0968188656866558
0.5500000611883258	0.17470277893958144	-0.6297804513770722	-0.7811774621361528	0.19991556079200143	0.13099665204668776	-0.3417131383869649	0.5592257868912653	1.6762743793443264	0.6272766823460283	-0.4155955357340519
-0.26394655938229067	-0.2916098092239497	-1.3167314535253727	0.0639066015267198	-0.028763488081634023	1.0771758557234898	0.12862916216092687	-0.3229327335207853	1.5202538477958274	-0.21016474528590595	0.3910254783569922
-0.7871979583205441	-0.5913821873290769	3.6064173952041143	1.0104007528291372	-0.05417227128981574	-0.6453555150727396	-0.7423750981129467	-0.6757961416856055	1.3642333162473284	4.8144838205057	1.298474119209417
-0.9034760469734893	-0.6579982713524385	2.0035317235247465	0.706170489910503	-0.8926621171598124	0.4463897199389551	-0.18493237153766762	-0.8522278457680157	0.5841306585048328	2.5414285169333066	0.8279451943229744
-0.7290589139940714	-0.5580741453173961	0.4006460518453786	0.26672677680580925	-0.9688884667843576	0.37360670427150877	0.44219069585952137	-0.6757961416856055	0.2720895954078346	0.6272766823460283	0.32380706051607183
-0.8162674804837804	-0.6080362083349172	0.4006460518453786	0.46954695208489866	-0.9434796835761758	-0.3057014419579901	0.18088941777735928	-0.6757961416856055	0.5841306585048328	0.8665456616694381	0.5926807318797532
-0.7290589139940714	-0.5580741453173961	-0.057321282920155064	0.8075805775500478	-0.18121618733072434	0.5676947460513656	0.25056975859926917	-0.6757961416856055	0.4281101269563337	0.26837321336091363	0.8951636121638947
0.31744388388243533	-0.05845351514218414	-0.5152886176856888	-0.8825875497756975	-0.4353040194125415	1.0286538452785257	3.8565273961331057	0.38279408280885524	-0.1959719992376627	-0.6887027039327256	-0.9197336695409545
-0.7290589139940714	-0.5580741453173961	-0.7442722850684556	-0.0037001235663100037	-1.375428998115265	0.27656268338158035	-0.21977254194862256	-0.8522278457680157	1.05219225315033	0.02910423403750383	0.22297943375469134
-0.9034760469734893	-0.6579982713524385	0.05717055077122835	0.9427940277361073	-0.5623479354534501	0.27656268338158035	0.21572958818831423	-0.8522278457680157	-0.0399514676891636	0.02910423403750383	0.9287728210843549
2.2651018688192677	1.157290018284165	-1.5457151209081395	-2.268525414182809	-0.6131655018698136	-0.281440436735508	-1.9617810624963699	2.1471111236329565	1.9883154424413247	-0.09053025562420107	-1.827182310393379
-1.1069627021161434	-0.7745764183933213	0.2861542181539952	0.5709570397244433	-1.7565607462379909	0.4949117303839193	-0.1326721159212352	-1.0286595498504258	-0.8200541254316591	-0.3297992349476109	0.3910254783569922
0.6081391055147983	0.20801082095126222	2.347007224598897	-0.17271693629888452	1.5211722876174507	1.3683079183932751	0.26798984380474666	0.7356574909736755	0.5841306585048328	2.900331985918421	-0.04589423760899003
0.5209305390250895	0.15804875793374104	0.05717055077122835	-0.6121606494035783	0.4794121760820003	-0.1843964158455796	-0.4288135644143522	0.38279408280885524	-0.1959719992376627	-0.09053025562420107	-0.6508599981772731
-0.8162674804837804	-0.6080362083349172	-0.2863049503029219	0.9089906651895925	-0.3082601033716329	0.6647387669412941	0.16346933257188181	-0.8522278457680157	1.05219225315033	0.5076421926843234	1.130428074607116
1.1895295487795243	3.5887770851368628	-0.40079678399430535	-0.747374099589638	1.419537154784724	0.5919557512738477	-2.0663015737292345	1.2649526032209057	0.4281101269563337	-0.09053025562420107	-0.6508599981772731
0.5500000611883258	0.24131886296294303	-0.40079678399430535	-1.0854077250547869	-0.38448645299617806	-0.35422345240295433	2.7764821133935023	0.5592257868912653	0.5841306585048328	0.02910423403750383	-0.9533428784614146
-0.11859894856610916	-0.20833970419474773	1.8890398898333631	-0.0037001235663100037	0.19991556079200143	0.8588268087211509	0.4596107810649988	0.02993067464403496	-1.7561773147226536	0.6272766823460283	-0.38198632681359174
0.11395722873978124	-0.07510753614802454	-0.5152886176856888	0.0977099640732347	0.9367702738292712	-0.2329184262905438	-0.16751228633219015	0.20636237872644508	1.3642333162473284	0.5076421926843234	0.3910254783569922
-0.14766847072934547	-0.17503166218306693	-0.5152886176856888	-0.17271693629888452	-0.1558074041225426	0.9073488191661151	2.462920579694908	-0.14650102943837517	0.1160690638593355	-0.44943372460931574	-0.14672186437037055
-0.9034760469734893	-0.6579982713524385	2.5759908919816636	1.078007477922167	-0.3590776697879963	0.9558708296110793	-0.899155864962244	-0.8522278457680157	-3.784444224853142	-0.21016474528590595	0.2565886426751515
1.3348771595957059	0.6243613460972722	-0.2863049503029219	-1.3558346254269062	0.32695947683291005	-1.6400567291945058	0.006688565722584575	1.2649526032209057	-0.9760746569801582	-1.0476061729178403	-1.5583086390296976
-0.9034760469734893	-0.6579982713524385	0.4006460518453786	0.30053013935232414	-1.4516553477398102	0.4949117303839193	0.3899304402430889	-1.0286595498504258	0.2720895954078346	0.6272766823460283	0.35741626943653204
-0.7871979583205441	-0.5913821873290769	0.2861542181539952	0.36813686444535393	-0.9942972499925393	-0.7909215464076322	0.2331496733937917	-0.8522278457680157	-0.3519925307861618	0.02910423403750383	0.2901978515956117
-0.23487703721905437	-0.2749557882181093	-0.6297804513770722	-0.17271693629888452	-0.3590776697879963	0.15525765726916985	0.024108650928062046	-0.3229327335207853	1.05219225315033	0.14873872369920874	0.05493338915239049
-0.7581284361573077	-0.5747281663232364	-0.2863049503029219	0.9089906651895925	-0.13039862091436089	-0.45126747329288275	-0.3765533087979198	-0.6757961416856055	-0.0399514676891636	-0.3297992349476109	0.8951636121638947
-0.7581284361573077	-0.5747281663232364	-0.2863049503029219	0.7399738524570179	-0.3590776697879963	-0.5483114941828111	0.14604924736640434	-0.8522278457680157	-0.5080130623346609	-0.6887027039327256	0.6262899408002134
0.9860428936368703	0.4245130940271874	-0.2863049503029219	-0.9839976374152423	0.5556385257065455	0.6404777617188119	-0.04557168989384784	1.0885208991384958	-0.9760746569801582	-1.0476061729178403	-1.1886073409046358
-1.1069627021161434	-0.7745764183933213	-0.2863049503029219	0.706170489910503	-1.5786992637807187	-0.13587440540061538	0.21572958818831423	-1.0286595498504258	-0.9760746569801582	-1.0476061729178403	0.4918531051183727
-0.8453370026470166	-0.6246902293407577	0.515137885536762	1.1456142030151968	-0.05417227128981574	-0.9850095881874891	-0.46365373482530714	-0.8522278457680157	-0.0399514676891636	0.5076421926843234	1.130428074607116
-0.35115512587199954	-0.3415718722414709	-0.858764118759839	0.23292341425929433	0.022054078334729412	0.37360670427150877	0.05894882133901699	-0.3229327335207853	0.1160690638593355	-0.8083371935944305	0.2565886426751515
-0.7871979583205441	-0.5913821873290769	1.2020888876850626	0.43574358953838377	-0.8926621171598124	0.27656268338158035	-0.4288135644143522	-0.6757961416856055	-0.8200541254316591	0.6272766823460283	0.2565886426751515
-0.7290589139940714	-0.5580741453173961	0.4006460518453786	1.2132209281082267	0.4285946096656369	-0.6696165202952217	-0.16751228633219015	-0.6757961416856055	-0.3519925307861618	0.14873872369920874	1.130428074607116
-0.7581284361573077	-0.5747281663232364	0.6296297192281455	1.1794175655617116	0.27614191041654657	-0.5483114941828111	0.4073505254485664	-0.8522278457680157	1.05219225315033	1.4647181099779625	1.3993017459707973
-0.8162674804837804	-0.6080362083349172	-0.6297804513770722	0.5371536771779285	-0.841844550743449	-0.6453555150727396	-0.272032797565055	-0.8522278457680157	0.896171721601831	0.02910423403750383	0.727117567561594
-0.9906846134631981	-0.7079603343699596	-0.7442722850684556	1.2470242906547415	-0.4353040194125415	0.6647387669412941	0.041528736133539516	-0.8522278457680157	0.1160690638593355	-0.6887027039327256	1.2648649102889566
0.6081391055147983	0.20801082095126222	-0.858764118759839	-0.9501942748687273	-0.028763488081634023	-0.11161340017813329	-0.04557168989384784	0.7356574909736755	1.05219225315033	-0.09053025562420107	-0.7180784160181934
-0.8162674804837804	-0.6080362083349172	0.2861542181539952	0.8751873026430775	-0.3590776697879963	0.7375217826087404	0.26798984380474666	-0.8522278457680157	0.1160690638593355	0.3880077030226185	0.8951636121638947
-0.7290589139940714	-0.5580741453173961	0.4006460518453786	0.16531668916626452	-1.1213411660334478	0.20377966771413406	0.3899304402430889	-0.6757961416856055	0.896171721601831	1.105814640992848	0.35741626943653204
-0.9034760469734893	-0.6579982713524385	-0.057321282920155064	0.9089906651895925	-0.6131655018698136	0.7375217826087404	0.5641312922978636	-1.0286595498504258	-0.1959719992376627	-0.21016474528590595	0.8615544032434346
-0.8453370026470166	-0.6246902293407577	-1.431223287216756	0.0639066015267198	-1.6041080469889004	0.5434337408288835	0.041528736133539516	-0.8522278457680157	0.5841306585048328	-1.0476061729178403	0.18937022483423116
-1.0488236577896708	-0.7412683763816404	-0.057321282920155064	0.9089906651895925	-1.095932382825266	0.9558708296110793	0.2331496733937917	-1.0286595498504258	-0.0399514676891636	-0.09053025562420107	0.8951636121638947
0.17209627306625386	2.955924286914928	-0.7442722850684556	0.8413839400965626	2.4358884831119925	0.8345658034986687	0.7383321443526384	0.02993067464403496	-0.0399514676891636	-0.8083371935944305	0.8279451943229744
-0.14766847072934547	-0.2249937252005881	-0.7442722850684556	-0.20652029884539944	-0.20662497053890605	-0.281440436735508	-0.2546127123595775	-0.14650102943837517	-0.1959719992376627	-0.9279716832561353	-0.24754949113175106
-0.5546417810146537	-0.4581500192823537	-0.2863049503029219	-0.375537111577974	-1.477064130947992	0.5919557512738477	-0.18493237153766762	-0.49936443760319543	-0.3519925307861618	-0.5690682142710206	-0.4492047446545121
1.1023209822898155	0.491129178050549	-0.7442722850684556	-1.3558346254269062	-0.028763488081634023	-0.6453555150727396	0.2854099290102241	1.0885208991384958	0.4281101269563337	-0.44943372460931574	-1.2558257587455561
-0.8453370026470166	-0.6246902293407577	0.2861542181539952	1.3146310157477712	0.17450677758381972	-1.203358635189828	-0.4462336496198297	-0.8522278457680157	-1.6001567831741546	-0.9279716832561353	0.9623820300048151
0.6953476720045072	4.1883218413471175	-1.087747786142606	-1.0178009999617572	-0.003354704873452306	-1.009270593409971	1.9054778531196288	0.7356574909736755	0.7401511900533319	-0.5690682142710206	-0.8525152517000342
0.46279149469861686	5.021022891639137	-1.3167314535253727	-1.0854077250547869	-0.5623479354534501	0.009691625934277233	-0.568174246058172	0.5592257868912653	0.4281101269563337	-1.0476061729178403	-0.9869520873818748
-0.8453370026470166	-0.6246902293407577	0.8586133866109122	0.8413839400965626	-0.4861215858289049	-0.01456937928820487	-0.30687296797600994	-0.8522278457680157	0.7401511900533319	1.4647181099779625	0.9959912389252753
1.1313905044530517	0.5077831990563894	-0.858764118759839	-1.1530144501478168	0.45400339287381863	-0.08735239495565118	-0.09783194551028025	1.2649526032209057	1.208212784698829	0.02910423403750383	-0.8861244606204943
-0.32208560370876327	-0.3249178512356305	-0.40079678399430535	-0.0037001235663100037	-0.2828513201634512	1.125697866168454	-0.28945288277053244	-0.3229327335207853	0.2720895954078346	-0.21016474528590595	0.05493338915239049
-0.8453370026470166	-0.6246902293407577	0.515137885536762	1.1456142030151968	-0.05417227128981574	0.20377966771413406	0.6163915479142961	-0.8522278457680157	1.208212784698829	1.4647181099779625	1.3993017459707973
-0.6709198696675989	-0.5247661033057153	-0.40079678399430535	0.6385637648174732	-0.2574425369552695	0.6889997721637762	0.2331496733937917	-0.6757961416856055	0.5841306585048328	0.02910423403750383	0.7607267764820541
0.23023531739272646	-0.008491452124662945	-0.6297804513770722	-0.4093404741244889	0.27614191041654657	0.7617827878312224	-0.08041186030480278	0.20636237872644508	0.1160690638593355	-0.5690682142710206	-0.38198632681359174
-0.9616150912999618	-0.6913063133641193	-0.17181311661153847	1.078007477922167	-0.5623479354534501	0.4463897199389551	-0.028151604688370368	-0.8522278457680157	-0.1959719992376627	-0.3297992349476109	1.0296004478457355
-0.8744065248102529	-0.641344250346598	-0.2863049503029219	1.078007477922167	-0.2574425369552695	0.7860437930537045	0.49445095147595375	-0.8522278457680157	-0.3519925307861618	-0.5690682142710206	0.9959912389252753
-0.20580751505581807	0.30793494698630464	-0.5152886176856888	-0.30793038648494414	-0.5115303690370867	0.22804067293661617	-0.5855943312636495	-0.14650102943837517	0.2720895954078346	-0.3297992349476109	-0.24754949113175106
-0.9906846134631981	-0.7079603343699596	0.6296297192281455	1.9568949041315544	0.5302297424983637	-0.6696165202952217	-0.18493237153766762	-1.0286595498504258	-0.66403359388316	0.14873872369920874	1.8026122530163193
-0.7871979583205441	-0.5913821873290769	-0.5152886176856888	1.0104007528291372	-0.05417227128981574	1.0043928400560436	0.5292911218869087	-0.6757961416856055	0.4281101269563337	-0.21016474528590595	1.0968188656866558
0.5500000611883258	0.17470277893958144	0.05717055077122835	-0.8487841872291826	0.07287164475109284	-0.06309138973316908	-0.7597951833184242	0.5592257868912653	-1.6001567831741546	-1.167240662579545	-1.1886073409046358
-0.9325455691367256	-0.6746522923582788	-0.7442722850684556	0.6385637648174732	-1.0705235996170845	0.3250846938265446	0.05894882133901699	-1.0286595498504258	0.1160690638593355	-0.6887027039327256	0.6598991497206735
-0.7581284361573077	-0.5747281663232364	-0.40079678399430535	0.8751873026430775	-0.1558074041225426	-1.2761416508572743	-0.6726947572910368	-0.6757961416856055	1.208212784698829	0.5076421926843234	1.130428074607116
-0.49650273668818107	-0.4248419772706729	-0.5152886176856888	-0.17271693629888452	-0.9942972499925393	0.7860437930537045	0.33767018462665654	-0.49936443760319543	0.1160690638593355	-0.44943372460931574	-0.14672186437037055
-1.1651017464426159	-0.8078844604050021	1.316580721376446	2.193518441957159	0.12368921116745628	-1.179097629967346	-0.3417131383869649	-1.205091253932836	-0.9760746569801582	0.6272766823460283	1.9706582976186202
-0.9906846134631981	-0.7079603343699596	-0.7442722850684556	0.33433350189883904	-1.6803343966134456	0.37360670427150877	-0.8294755241403341	-0.8522278457680157	0.4281101269563337	-0.44943372460931574	0.42463468727745235
-0.8453370026470166	-0.6246902293407577	3.835401062586881	1.5850579161198906	0.5810473089147272	0.15525765726916985	-0.6901148424965143	-0.8522278457680157	0.5841306585048328	4.4555803515205845	1.7017846262549388
